f1,f2,f3,f4,f5,f6,f7,f8,f9,f10,f11,f12,f13,f14,Decision
0.54187,0.28588,0.70019,0.066544,0.32682,0.82547,0.55233,0.54216,0.22572,0.72855,0.89188,0.34857,0.75689,0.54493,yes
0.5415,0.29194,0.67622,0.060778,0.37369,0.82265,0.57553,0.49909,0.22684,0.71121,0.89158,0.34888,0.79483,0.53176,yes
0.53015,0.26137,0.70983,0.066547,0.30827,0.80889,0.63633,0.50716,0.25646,0.72381,0.8917,0.33689,0.85232,0.45436,yes
0.5255,0.29737,0.70308,0.066489,0.31268,0.82861,0.62172,0.49719,0.2844,0.72068,0.8918,0.31042,0.74444,0.37872,yes
0.53802,0.30753,0.70526,0.066514,0.30205,0.8552,0.55918,0.50293,0.27523,0.72551,0.89202,0.2945,0.80104,0.40293,yes
0.53245,0.271,0.71538,1,0.31034,0.81185,0.65817,0.52731,0.22082,0.72742,0.89184,0.32462,0.72639,0.51895,yes
0.51317,0.2516,0.73388,0.06619,0.30276,0.80291,0.64005,0.50903,0.20857,0.70453,0.89189,0.33094,0.84683,0.43855,yes
0.50848,0.25534,0.76741,0.065739,0.27082,0.80229,0.65017,0.52506,0.19954,0.71118,0.8919,0.32848,0.76432,0.50924,yes
0.5237,0.33142,0.74953,0.066279,0.37995,0.77686,0.63446,0.49594,0.22507,0.71149,0.89199,0.331,0.84988,0.43745,yes
0.53546,0.31012,0.70834,0.066547,0.32727,0.84072,0.5998,0.53254,0.22433,0.73025,0.89202,0.31379,0.7208,0.57134,yes
0.52416,0.2811,0.69623,0.066522,0.31474,0.79662,0.59326,0.53171,0.19261,0.71674,0.89181,0.30526,0.7413,0.51652,yes
0.52643,0.26478,0.70396,0.066526,0.31274,0.78584,0.61562,0.50453,0.22629,0.71745,0.8919,0.33257,0.83796,0.48636,yes
0.52743,0.27724,0.70532,0.066458,0.31208,0.82264,0.58761,0.50899,0.22243,0.723,0.89199,0.30651,0.70916,0.61917,yes
0.5249,0.28124,0.69979,0.065471,0.32506,0.82543,0.59958,0.54403,0.22322,0.73151,0.89174,0.32074,0.71916,0.47416,yes
0.45974,0.28776,0.70681,0.065747,0.37627,0.84165,0.61099,0.51672,0.23439,0.72649,0.89191,0.30899,0.74453,0.46638,yes
0.54083,0.29793,0.70635,0.066553,0.34046,0.84369,0.66531,0.50425,0.25298,0.7295,0.89099,0.28604,0.78194,0.54808,yes
0.54322,0.29678,0.70306,0.066549,0.32584,0.8565,0.55042,0.4653,0.28224,0.70317,0.89191,0.33771,0.7689,0.55305,yes
0.54611,0.30962,0.69997,0.30155,0.4021,0.84146,0.62322,0.49624,0.27362,0.71955,0.89183,0.32975,0.75993,0.63222,yes
0.54272,0.2836,0.70264,0.066544,0.3093,0.74325,0.7306,0.51666,0.23253,0.72507,0.89199,0.31518,0.85504,0.45473,yes
0.5252,0.24722,0.69257,0.06653,0.27249,0.74452,0.6853,0.50381,0.24736,0.71999,0.89144,0.33798,0.79856,0.45113,yes
0.53465,0.23654,0.70591,0.06656,0.2738,0.77172,0.63428,0.50237,0.28087,0.72286,0.89188,0.35076,0.74536,0.5574,yes
0.54424,0.29627,0.70709,0.066134,0.3395,0.80196,0.61417,0.49316,0.28543,0.71893,0.89202,0.36434,0.87809,0.38587,yes
0.5574,0.25819,0.70886,0.066343,0.32992,0.80729,0.55213,0.48314,0.20802,0.72097,0.89173,0.18997,0.66095,0.53135,yes
0.57494,0.33688,0.71166,0.057087,0.39673,0.8268,0.53522,0.48963,0.27879,0.71577,0.89164,0.32016,0.793,0.45794,yes
0.58849,0.32487,0.70988,0.066511,0.38827,0.82495,0.50214,0.49617,0.28135,0.72158,0.89198,0.3267,0.83345,0.3948,yes
0.59585,0.31638,0.81152,0.066518,0.36776,0.83765,0.50801,0.49436,0.27309,0.72125,0.89199,0.31444,0.80636,0.50035,yes
0.57647,0.28259,0.83212,0.066521,0.33883,0.74101,0.58646,0.5366,0.23353,0.73305,0.89176,0.32211,0.73989,0.63503,yes
0.54127,0.27725,0.70048,0.066557,0.30623,0.80819,0.59357,0.51641,0.22576,0.7201,0.89184,0.31113,0.70401,0.54136,yes
0.54236,0.28071,0.6825,0.088159,0.35471,0.8102,0.5805,0.52473,0.2408,0.72478,0.89197,0.33813,0.75385,0.48916,yes
0.53878,0.2705,0.70381,0.066501,0.29279,0.7637,0.61711,0.52878,0.21216,0.72686,0.89191,0.30677,0.84052,0.53084,yes
0.53091,0.20723,0.67837,0.066465,0.27743,0.85475,0.65157,0.52636,0.20917,0.72234,0.89185,0.30199,0.75178,0.47026,yes
0.52875,0.28257,0.6637,0.066145,0.38041,0.8417,0.54851,0.50272,0.19557,0.70904,0.89193,0.29036,0.75155,0.49529,yes
0.50205,0.28309,0.69523,0.066555,0.29968,0.74898,0.56431,0.51097,0.20786,0.71885,0.89162,0.30643,0.80604,0.55063,yes
0.51305,0.197,0.66729,0.6614,0.28331,0.82908,0.67903,0.49432,0.22658,0.71442,0.89179,0.34468,0.77344,0.5331,yes
0.53202,0.31687,0.71974,0.79509,0.38151,0.83449,0.52869,0.5059,0.23752,0.72464,0.89172,0.31174,0.83278,0.53687,yes
0.5414,0.25763,0.70497,0.06646,0.32273,0.85559,0.55164,0.37646,0.19142,0.5464,0.89187,0.17244,0.52761,0.79547,yes
0.54247,0.23757,0.67522,0.066512,0.33114,0.85902,0.61732,0.44647,0.2077,0.69284,0.8915,0.22378,0.66366,0.63644,yes
0.52698,0.28331,0.70556,0.066405,0.31363,0.78605,0.6124,0.51538,0.24107,0.72706,0.89185,0.31677,0.83224,0.51196,yes
0.53802,0.27125,0.67042,0.081004,0.37621,0.82906,0.60584,0.51358,0.22937,0.72254,0.89202,0.33638,0.74068,0.60594,yes
0.54324,0.27017,0.70121,0.066507,0.307,0.80575,0.56092,0.51451,0.22295,0.72244,0.89159,0.32613,0.73818,0.60533,yes
0.56993,0.28901,0.80871,0.066529,0.36305,0.83651,0.53584,0.51695,0.24568,0.72669,0.89184,0.30661,0.72871,0.48082,yes
0.57452,0.27001,0.84476,0.066534,0.34231,0.84694,0.51525,0.49512,0.25837,0.72691,0.89175,0.29849,0.80405,0.53204,yes
0.52771,0.27236,0.70159,0.066514,0.3141,0.81178,0.59287,0.50867,0.2658,0.72517,0.89198,0.34249,0.76531,0.46442,yes
0.55082,0.29061,0.74968,0.066536,0.37211,0.82955,0.61653,0.49658,0.25164,0.71378,0.89159,0.33972,0.8102,0.52808,yes
0.54238,0.30508,0.81216,0.066561,0.35939,0.83946,0.53703,0.51553,0.25211,0.72616,0.89185,0.34165,0.74331,0.50835,yes
0.51419,0.26633,0.70002,0.066554,0.30475,0.84783,0.58863,0.52373,0.26619,0.72636,0.89193,0.33452,0.73288,0.58697,yes
0.56168,0.24486,0.68313,0.066554,0.34286,0.87526,0.55038,0.50642,0.24441,0.72056,0.89187,0.33349,0.86554,0.42826,yes
0.56213,0.33837,0.71979,0.61159,0.38733,0.827,0.48021,0.51138,0.24081,0.72034,0.89176,0.33456,0.78309,0.43297,yes
0.54844,0.26823,0.71369,0.066499,0.3371,0.83689,0.46296,0.5212,0.26367,0.72716,0.8916,0.32246,0.71606,0.55367,yes
0.53509,0.22366,0.67031,0.066589,0.31416,0.8323,0.68779,0.50506,0.30444,0.72814,0.89195,0.33699,0.7338,0.62911,yes
0.19584,0.11692,0.68611,0.066903,0.021423,0.31602,0.80496,0.61214,0.12605,0.74152,0.88813,0.05366,0.41087,0.6943,no
0.69523,0.052499,0.71515,0.066155,0.039905,0.33703,0.80164,0.35073,0.14442,0.7205,0.89056,0.03911,0.29149,0.64235,no
0.5813,0.069349,0.71394,0.066561,0.033027,0.36335,0.85083,0.62641,0.13464,0.73665,0.89099,0.067808,0.42888,0.64209,no
0.60878,0.085861,0.72636,0.066562,0.039106,0.32883,0.76535,0.59193,0.094075,0.72845,0.89145,0.053848,0.3923,0.70842,no
0.23382,0.14888,0.68812,0.2433,0.039287,0.37894,0.69688,0.56237,0.072979,0.7428,0.88982,0.048799,0.31895,0.63889,no
0.41979,0.093376,0.70242,0.066224,0.039213,0.31323,0.79969,0.69944,0.06505,0.7448,0.88799,0.052331,0.42908,0.71665,no
0.20523,0.13031,0.6963,0.066561,0.028253,0.20682,0.73508,0.61626,0.086738,0.72422,0.88942,0.049279,0.39478,0.73966,no
0.48542,0.12945,0.73723,0.065765,0.041978,0.30889,0.69206,0.70785,0.086253,0.72972,0.88788,0.062424,0.45189,0.69844,no
0.26491,0.068123,0.70271,0.066571,0.032038,0.34701,0.88566,0.68399,0.10233,0.73848,0.89041,0.060632,0.43288,0.69021,no
0.017055,0.19633,0.65273,0.066562,0.03448,0.15347,0.7346,0.67001,0.094352,0.72928,0.88887,0.056724,0.42197,0.72708,no
0.21172,0.097251,0.68576,0.066398,0.033554,0.34633,0.86775,0.5943,0.089549,0.74939,0.88556,0.033852,0.27501,0.62944,no
0.61586,0.032115,0.71384,0.066519,0.032761,0.35105,0.85627,0.58348,0.12553,0.73982,0.89166,0.059693,0.41234,0.71991,no
0.51649,0.074961,0.70902,0.066514,0.020996,0.26573,0.78809,0.62294,0.086371,0.73955,0.88884,0.063136,0.33037,0.60101,no
0.50355,0.027702,0.70296,0.067653,0.0064462,0.15508,0.85422,0.68287,0.093004,0.75059,0.88762,0.065589,0.4654,0.71904,no
0.48096,0.071464,0.70641,0.066406,0.021908,0.22808,0.84755,0.5243,0.16986,0.73264,0.88653,0.054478,0.41071,0.64925,no
0.51406,0.073236,0.72032,0.066493,0.022425,0.26485,0.83251,0.15974,0.21113,0.70484,0.89107,0.052297,0.33861,0.52956,no
0.59792,0.086118,0.71288,0.066556,0.034782,0.31401,0.80384,0.4713,0.13099,0.72665,0.89139,0.048612,0.35409,0.68263,no
0.50143,0.080157,0.71173,0.066492,0.025931,0.28794,0.76536,0.56659,0.09996,0.73954,0.89117,0.063612,0.37386,0.63685,no
0.61815,0.052942,0.72386,0.066276,0.026459,0.27722,0.75905,0.042993,0.10949,0.53107,0.88362,0.014572,0.1497,0.91741,no
0.55174,0.059237,0.71998,0.066522,0.028337,0.29432,0.74491,0.7032,0.071735,0.73828,0.88721,0.054291,0.40846,0.63946,no
0.49119,0.11697,0.70751,0.066492,0.029769,0.21532,0.71138,0.57317,0.095981,0.74665,0.88918,0.042213,0.31413,0.65671,no
0.52284,0.066335,0.71653,0.066436,0.032343,0.27502,0.82445,0.58399,0.11587,0.74117,0.88586,0.042438,0.31625,0.59084,no
0.0011177,0.28019,0.55469,0.066477,0.043711,0.063132,0.61719,0.22176,0.17719,0.71025,0.88871,0.041556,0.31578,0.56942,no
0.54537,0.077885,0.73047,0.066121,0.032824,0.32185,0.75542,0.17523,0.19602,0.71016,0.88992,0.045804,0.23123,0.52453,no
0.47387,0.021667,0.7166,0.066585,0.01155,0.15617,0.78101,0.36385,0.16595,0.72132,0.89175,0.053219,0.35673,0.65029,no
0.61137,0.070348,0.72473,0.066508,0.021994,0.22039,0.74015,0.565,0.12041,0.74603,0.89124,0.050335,0.27283,0.57897,no
0.41336,0.08244,0.71742,0.070784,0.019919,0.19367,0.7279,0.58758,0.097679,0.73773,0.89177,0.060663,0.40469,0.67615,no
0.63976,0.037649,0.721,0.066536,0.020945,0.25738,0.77091,0.16893,0.15294,0.70209,0.89112,0.064345,0.43773,0.72656,no
0.041984,0.14455,0.67076,0.066436,0.020832,0.13981,0.66522,0.15909,0.14563,0.69863,0.88425,0.037012,0.39646,0.81088,no
0.3678,0.068129,0.7022,0.066583,0.02817,0.24912,0.78629,0.6325,0.049324,0.75079,0.88807,0.041716,0.38986,0.75231,no
0.58742,0.053694,0.71516,0.066555,0.02569,0.26922,0.73942,0.61305,0.074681,0.75299,0.88875,0.033009,0.24866,0.64205,no
0.57046,0.073201,0.70983,0.066637,0.02626,0.29855,0.81734,0.47092,0.12591,0.73645,0.88868,0.03453,0.27002,0.62773,no
0.56989,0.069541,0.72017,0.066607,0.020872,0.2588,0.75966,0.0068298,0.26195,0.6524,0.88787,0.028811,0.2265,0.56892,no
0.62461,0.064769,0.71845,0.066485,0.032069,0.28086,0.72805,0.0086805,0.25925,0.61839,0.89207,0.037805,0.23292,0.60564,no
0.070651,0.15051,0.67628,0.066561,0.019187,0.17574,0.69067,0.16236,0.17063,0.70074,0.89124,0.037931,0.31701,0.72171,no
0.44847,0.067807,0.71192,0.066581,0.022319,0.28274,0.78092,0.41405,0.13978,0.72543,0.89186,0.051086,0.35088,0.70787,no
0.48758,0.034139,0.70849,0.066545,0.021192,0.31222,0.79661,0.48678,0.091186,0.72636,0.89081,0.05646,0.43714,0.8228,no
0.50587,0.11289,0.70726,0.066554,0.030506,0.23319,0.67989,0.59678,0.060013,0.73858,0.88766,0.050893,0.44122,0.76793,no
0.40098,0.094003,0.69982,0.066541,0.020247,0.26358,0.78702,0.55014,0.062504,0.74466,0.89106,0.046221,0.363,0.69589,no
0.63142,0.06092,0.72584,0.066549,0.029221,0.25959,0.74456,0.62135,0.036936,0.74216,0.88681,0.030925,0.36967,0.80837,no
0.57495,0.058749,0.71497,0.066735,0.021349,0.2673,0.74406,0.6925,0.078501,0.74889,0.88822,0.037739,0.37678,0.76004,no
0.57209,0.05911,0.72072,0.06843,0.02207,0.29251,0.71226,0.54397,0.11153,0.73994,0.89147,0.04071,0.29253,0.62474,no
0.57941,0.10201,0.72014,0.066485,0.03673,0.2171,0.67799,0.62437,0.094379,0.75298,0.892,0.045687,0.3673,0.68031,no
0.53596,0.050393,0.73118,0.066561,0.015239,0.18595,0.71588,0.63431,0.09253,0.74216,0.89074,0.037246,0.36025,0.71439,no
0.6,0.059443,0.73022,0.066555,0.025224,0.2393,0.78049,0.58674,0.038735,0.72859,0.89169,0.014453,0.27142,0.80919,no
0.45407,0.061065,0.70883,0.066601,0.015423,0.22018,0.78547,0.63339,0.049021,0.75782,0.88959,0.020304,0.21957,0.69375,no
0.50682,0.044674,0.70578,0.066561,0.021209,0.22307,0.75371,0.47946,0.073247,0.72495,0.89017,0.019447,0.25343,0.73973,no
0.39954,0.11041,0.70652,0.066514,0.026391,0.2051,0.7396,0.41494,0.060295,0.70812,0.88585,0.01536,0.24604,0.83393,no
0.44324,0.061884,0.7053,0.16698,0.020278,0.22491,0.78352,0.52014,0.10034,0.7367,0.89093,0.030302,0.28718,0.68679,no
0.61891,0.074631,0.71404,0.066562,0.033454,0.31393,0.73404,0.53671,0.08905,0.73439,0.89056,0.031568,0.29576,0.71424,no
0.54735,0.3426,0.68063,0.064211,0.45223,0.9449,0.57095,0.51382,0.26974,0.72423,0.89203,0.3971,0.8119,0.58496,no
0.53033,0.28296,0.69259,0.066558,0.3611,0.94926,0.55133,0.54997,0.23582,0.73595,0.89205,0.36834,0.95581,0.5078,no
0.52124,0.3823,0.70779,0.066568,0.40079,0.96955,0.52616,0.55557,0.21431,0.71938,0.89215,0.37797,0.78062,0.39815,no
0.56052,0.35496,0.71572,0.32025,0.42431,0.97346,0.53659,0.49776,0.23267,0.70948,0.89202,0.44904,0.86409,0.6706,no
0.52728,0.26527,0.70214,0.066561,0.37649,0.99589,0.54595,0.50644,0.23363,0.72083,0.89205,0.37355,0.87439,0.7087,no
0.53854,0.34446,0.70669,0.066975,0.34426,0.89694,0.55411,0.50289,0.25892,0.70688,0.89203,0.42799,0.95959,0.39855,no
0.54459,0.38512,0.71358,0.064339,0.41476,0.911,0.51688,0.55041,0.23467,0.73933,0.89204,0.33266,0.71663,0.37767,no
0.50316,0.19186,0.7075,0.066561,0.29807,0.89099,0.66459,0.52594,0.195,0.71071,0.89203,0.32944,0.88034,0.66687,no
0.51475,0.1731,0.69451,0.066278,0.238,0.90513,0.66929,0.54955,0.18735,0.7125,0.89204,0.33977,0.74607,0.48563,no
0.52835,0.30407,0.70145,0.63585,0.30315,0.87449,0.61028,0.52747,0.24425,0.71178,0.89163,0.41288,0.92345,0.63563,no
0.53217,0.18426,0.70405,0.066532,0.24728,0.87946,0.65921,0.49146,0.27084,0.7181,0.89204,0.41454,0.97717,0.55861,no
0.48562,0.23542,0.70376,0.066052,0.24596,0.88669,0.66611,0.57436,0.2406,0.74239,0.89202,0.36254,0.76092,0.40203,no
0.49033,0.2997,0.69684,0.066309,0.32659,0.87091,0.5655,0.47401,0.33053,0.71896,0.89138,0.44112,0.95852,0.57169,no
0.54231,0.20622,0.70845,0.066559,0.30846,0.85512,0.61335,0.44627,0.42602,0.70823,0.89203,0.42099,0.94512,0.35141,no
0.47976,0.43046,0.68984,0.066466,0.32843,0.78884,0.49685,0.50467,0.34036,0.7362,0.89208,0.39705,0.77476,0.3528,no
0.37882,0.5492,0.67662,0.089534,0.60738,0.99114,0.31977,0.52569,0.29479,0.73976,0.89201,0.33439,0.70034,0.3623,no
0.018655,0.97255,0.63575,0.04845,1,1,0.06197,0.57509,0.23382,0.75081,0.89207,0.32598,0.84297,0.36896,no
0.074794,0.75544,0.62283,0.058643,0.58403,0.92294,0.3108,0.51231,0.24253,0.70775,0.89202,0.43691,0.9631,0.58147,no
0.48982,0.20306,0.87894,0.066591,0.25685,0.91228,0.73747,0.53107,0.23382,0.72634,0.89203,0.39173,0.98056,0.4822,no
0.017038,0.71515,0.80872,0.079744,0.64392,0.92637,0.42328,0.52736,0.25843,0.73066,0.89193,0.3386,0.88226,0.5554,no
0.4261,0.51112,0.66713,0.064887,0.34862,0.82615,0.43118,0.55983,0.25328,0.74505,0.8924,0.33621,0.76013,0.47194,no
0.50064,0.22638,0.69898,0.19266,0.31934,0.80277,0.59284,0.54727,0.20183,0.72724,0.89204,0.39734,0.82307,0.48575,no
0.49776,0.27016,0.69276,0.066775,0.32438,0.85919,0.59191,0.52668,0.19146,0.71643,0.89203,0.41983,1,0.43043,no
0.54836,0.25614,0.70243,0.066559,0.32456,0.89796,0.60759,0.51374,0.17607,0.71335,0.89182,0.3852,0.97881,0.55214,no
0.46926,0.25376,0.68611,0.065673,0.26979,0.89332,0.65104,0.5189,0.20267,0.71053,0.89179,0.36176,0.94191,0.518,no
0.49195,0.39547,0.68905,0.059571,0.31217,0.81769,0.5863,0.50345,0.28024,0.72825,0.89203,0.34128,0.81176,0.37206,no
0.48511,0.21799,0.66925,0.066701,0.28961,0.87847,0.7292,0.53699,0.18949,0.71682,0.89203,0.29298,0.73716,0.58531,no
0.48314,0.22852,0.69043,0.066561,0.27851,0.84324,0.73737,0.50038,0.28579,0.72726,0.89071,0.35352,0.72498,0.42701,no
0.48804,0.17463,0.68789,0.066464,0.23656,0.89045,0.6872,0.44603,0.40303,0.7061,0.89203,0.38748,0.91426,0.38057,no
0.50693,0.29955,0.6957,0.75678,0.31346,0.88573,0.63258,0.48664,0.33535,0.72324,0.89209,0.35779,0.84677,0.57246,no
0.50388,0.2556,0.70093,0.061989,0.30305,0.85606,0.68485,0.55592,0.25678,0.73778,0.89203,0.34822,0.83164,0.58542,no
0.51518,0.23093,0.66994,0.06637,0.3029,0.87163,0.67277,0.50402,0.27413,0.74397,0.8715,0.36492,0.92644,0.47615,no
0.50038,0.2892,0.71023,0.066048,0.30353,0.84324,0.60992,0.54399,0.32513,0.73765,0.89203,0.38872,0.8755,0.56074,no
0.50197,0.25779,0.6823,0.066502,0.32166,0.80829,0.63991,0.51744,0.29996,0.72884,0.89189,0.3368,0.90078,0.44504,no
0.5426,0.22125,0.68797,0.066511,0.28133,0.79177,0.7032,0.49907,0.31673,0.72893,0.89203,0.33829,0.78832,0.34173,no
0.52169,0.31102,0.69663,0.065516,0.30606,0.8818,0.62976,0.53744,0.2272,0.73014,0.89082,0.31676,0.76752,0.56329,no
0.52696,0.2498,0.69801,0.066506,0.31969,0.88757,0.60104,0.529,0.21367,0.71086,0.89203,0.36194,0.85417,0.4221,no
0.52637,0.29269,0.71237,0.066561,0.30434,0.90919,0.52149,0.50992,0.18767,0.70057,0.89196,0.3335,0.76017,0.63192,no
0.47791,0.33084,0.69984,0.066558,0.34715,0.9172,0.51904,0.53282,0.17526,0.71268,0.892,0.30814,0.89353,0.58316,no
0.53389,0.2502,0.69241,0.065645,0.33756,0.92152,0.53127,0.52883,0.15378,0.71536,0.89204,0.29014,0.84614,0.68772,no
0.51677,0.30663,0.7137,0.065223,0.33528,0.86815,0.63861,0.53093,0.13221,0.73361,0.89202,0.29575,0.9091,0.66347,no
0.54622,0.29699,0.67404,0.065764,0.39604,0.91497,0.64437,0.52889,0.15259,0.73811,0.89155,0.29614,0.77587,0.49587,no
0.53061,0.27949,0.69856,0.066329,0.35592,0.89937,0.59983,0.54648,0.17772,0.71562,0.89188,0.31408,0.75927,0.55633,no
0.50247,0.32995,0.69819,0.066408,0.34096,0.84449,0.45625,0.51894,0.18285,0.7129,0.89202,0.29093,0.83695,0.50077,no
0.56668,0.28191,0.68107,0.065161,0.36178,0.79736,0.63289,0.51105,0.17231,0.70429,0.892,0.29783,0.8466,0.6871,no
0.51988,0.29365,0.70198,0.067354,0.30394,0.86939,0.62787,0.5434,0.16501,0.7202,0.89195,0.3172,0.92135,0.5939,no
0.53949,0.25204,0.71038,0.10715,0.28977,0.88813,0.67551,0.52055,0.23358,0.72332,0.89159,0.33391,0.73408,0.49579,no
0.52486,0.30197,0.7,0.066561,0.36326,0.85881,0.65458,0.53113,0.26436,0.73539,0.89197,0.31373,0.8948,0.51824,no
0.34922,0.48618,0.66553,0.067376,0.46889,0.84336,0.40155,0.49413,0.278,0.73004,0.89201,0.28228,0.68788,0.43919,no
0.44632,0.44376,0.67844,0.066561,0.44528,0.97272,0.56418,0.50253,0.26854,0.7288,0.89203,0.31347,0.80132,0.6997,no
0.89389,0.092568,0.73264,0.066527,0.075888,0.46115,0.52797,0.82233,0.085185,0.77108,0.89199,0.075632,0.5069,0.60532,no
0.85961,0.10146,0.73755,0.066535,0.075677,0.45263,0.51964,0.88799,0.11275,0.76055,0.89203,0.085509,0.53663,0.5418,no
0.86485,0.061515,0.73828,0.066561,0.074193,0.48724,0.51924,0.84982,0.11886,0.76528,0.89203,0.083072,0.45978,0.38067,no
0.8281,0.10785,0.74231,0.066562,0.064908,0.41172,0.54492,0.88761,0.1244,0.76527,0.89203,0.071327,0.43637,0.3533,no
0.89959,0.067728,0.74689,0.066558,0.077141,0.46724,0.62271,0.80694,0.12756,0.75995,0.89201,0.073313,0.50439,0.59305,no
0.92232,0.10416,0.73727,0.066415,0.07089,0.40979,0.56311,0.90768,0.12634,0.7593,0.89204,0.087254,0.52925,0.45567,no
0.89338,0.076441,0.73834,0.066474,0.057794,0.436,0.6071,0.87384,0.096966,0.7671,0.89203,0.082066,0.4694,0.39619,no
0.85759,0.037293,0.74375,0.066564,0.035204,0.31155,0.63656,0.88085,0.065459,0.77986,0.89205,0.064761,0.33253,0.34461,no
0.84563,0.087246,0.73773,0.066402,0.05993,0.3918,0.59733,0.81425,0.057412,0.77026,0.89203,0.071234,0.41686,0.45864,no
1,0.066645,0.74713,0.063042,0.072331,0.39027,0.60549,0.8264,0.046378,0.74736,0.89203,0.075252,0.49208,0.54869,no
0.86479,0.10963,0.7315,0.066562,0.062127,0.3795,0.56999,0.88993,0.032847,0.74777,0.89203,0.068002,0.49513,0.60132,no
0.90473,0.05862,0.74695,0.066431,0.06445,0.43262,0.57751,0.9095,0.054853,0.74966,0.89199,0.085222,0.55924,0.62518,no
0.88682,0.098244,0.74821,0.066514,0.071775,0.39867,0.62862,0.77832,0.081582,0.77728,0.892,0.063003,0.36574,0.47107,no
0.92013,0.091653,0.738,0.066492,0.071202,0.44417,0.50505,0.88544,0.1038,0.77097,0.89203,0.082917,0.45129,0.34419,no
0.93614,0.040038,0.73689,0.06657,0.057469,0.41279,0.60062,0.84987,0.09522,0.77721,0.89203,0.066673,0.46685,0.55465,no
0.88456,0.089976,0.74884,0.066561,0.062262,0.40231,0.56121,0.77954,0.10581,0.77569,0.89201,0.065588,0.31861,0.4084,no
0.83051,0.047116,0.74476,0.066477,0.042851,0.38091,0.58736,0.77865,0.12534,0.77206,0.89203,0.070251,0.33039,0.37099,no
0.88994,0.076896,0.74673,0.06656,0.065429,0.43321,0.51391,0.83467,0.11746,0.76738,0.89207,0.07291,0.4938,0.58687,no
0.87021,0.07204,0.73749,0.066475,0.051135,0.40786,0.5531,0.83717,0.088619,0.78419,0.89203,0.054583,0.27797,0.379,no
0.92048,0.072596,0.74235,0.066578,0.075422,0.4745,0.53449,0.81045,0.071408,0.7809,0.89203,0.066827,0.42743,0.50929,no
0.86148,0.098523,0.73909,0.06655,0.065738,0.4251,0.53797,0.98014,0.078128,0.76636,0.89203,0.08066,0.5309,0.53378,no
0.85409,0.07936,0.72882,0.066559,0.061172,0.42793,0.66921,0.91419,0.068242,0.77634,0.89203,0.073259,0.51363,0.64177,no
0.74914,0.15971,0.74084,0.066539,0.059939,0.36252,0.51868,0.97445,0.059612,0.7499,0.89203,0.08905,0.53989,0.45216,no
0.83177,0.059715,0.73129,0.066566,0.068969,0.44639,0.59496,0.93297,0.068893,0.76564,0.89203,0.082943,0.54191,0.57324,no
0.86784,0.066889,0.73391,0.066556,0.073476,0.45551,0.67801,0.85712,0.081112,0.77756,0.89203,0.068772,0.37562,0.38997,no
0.82533,0.0772,0.73231,0.066528,0.052966,0.40526,0.57931,0.78178,0.064392,0.77354,0.89203,0.035489,0.32547,0.58018,no
0.93832,0.030861,0.73075,0.066561,0.046455,0.31117,0.57844,0.8813,0.075244,0.76607,0.89203,0.041445,0.39872,0.65675,no
0.8723,0.090451,0.73298,0.066542,0.055779,0.40177,0.63861,0.90262,0.092799,0.75642,0.89194,0.066926,0.49213,0.61088,no
0.91759,0.03463,0.73959,0.066536,0.054317,0.36796,0.6011,0.86473,0.12209,0.75714,0.89202,0.070646,0.47729,0.49379,no
0.80536,0.11807,0.73529,0.066563,0.080636,0.41114,0.52566,0.87109,0.13304,0.75256,0.89203,0.062402,0.45126,0.47316,no
0.91845,0.067878,0.74021,0.066448,0.066474,0.42419,0.59291,0.85966,0.11047,0.76117,0.89206,0.054345,0.39603,0.43588,no
0.88217,0.068124,0.73236,0.066562,0.059649,0.40293,0.53155,0.85666,0.075916,0.77776,0.89206,0.054909,0.43348,0.57312,no
0.85347,0.070691,0.78454,0.066561,0.04585,0.30531,0.48447,0.85171,0.059658,0.78065,0.89204,0.044136,0.35018,0.49822,no
0.91436,0.039349,0.77999,0.066511,0.055515,0.38458,0.54052,0.92713,0.070404,0.76277,0.89203,0.072377,0.51484,0.60569,no
0.8914,0.071638,0.73651,0.066561,0.049862,0.36895,0.57344,0.93991,0.046832,0.75692,0.8921,0.061751,0.45675,0.5246,no
0.90401,0.031145,0.77014,0.06656,0.043163,0.34347,0.52067,0.92393,0,0.74314,0.89201,0.019589,0.32791,0.7022,no
0.8925,0.053047,0.75137,0.066561,0.060211,0.44152,0.62706,0.81462,0.013219,0.77293,0.89202,0.019684,0.26126,0.64169,no
0.8919,0.046946,0.75295,0.066559,0.057024,0.43475,0.61014,0.93354,0.044637,0.7679,0.892,0.038597,0.407,0.68067,no
0.88266,0.035691,0.73857,0.06656,0.045154,0.4494,0.67808,0.77033,0.072145,0.77154,0.89203,0.038333,0.36183,0.6021,no
0.88829,0.079166,0.73993,0.066582,0.065652,0.44529,0.54636,0.85973,0.09481,0.76374,0.89203,0.055595,0.40454,0.46662,no
0.85636,0.042159,0.73948,0.066556,0.049919,0.36019,0.59928,0.78953,0.11666,0.76349,0.89195,0.064894,0.38783,0.42742,no
0.86166,0.055702,0.96153,0.066552,0.050464,0.42211,0.57246,0.77774,0.11542,0.76045,0.89203,0.060163,0.46343,0.65185,no
0.92894,0.067454,0.89566,0.066506,0.0694,0.43905,0.57378,0.86926,0.10671,0.76303,0.89207,0.066526,0.47654,0.55249,no
0.87399,0.074287,0.74215,0.066448,0.063549,0.43196,0.72475,0.84082,0.064255,0.78524,0.89206,0.052306,0.28697,0.42568,no
0.87566,0.080374,0.73907,0.064441,0.065234,0.41416,0.63143,0.80147,0.054257,0.77721,0.89203,0.055982,0.35937,0.50501,no
0.8566,0.081122,0.73809,0.066514,0.058785,0.39542,0.59019,0.98582,0.068815,0.76444,0.89203,0.068735,0.47522,0.45607,no
0.88297,0.12036,0.72982,0.054326,0.075677,0.42816,0.53253,0.94799,0.047725,0.77814,0.89203,0.047654,0.43122,0.6629,no
0.91356,0.039982,0.73754,0.066557,0.059114,0.43417,0.6455,0.90218,0.036645,0.77465,0.89203,0.039832,0.28708,0.45838,no
0.79763,0.10839,0.7255,0.066307,0.058469,0.37451,0.6125,1,0.036482,0.74153,0.89203,0.064324,0.45843,0.45557,no
0.81225,0.12504,0.75595,0.059416,0.073653,0.44671,0.54115,0.96365,0.055841,0.76628,0.89203,0.071656,0.46911,0.4342,no
0.80457,0.16354,0.7388,0.063554,0.09571,0.39434,0.69306,0.74296,0.14151,0.75295,0.87676,0.091045,0.42987,0.56053,no
0.71222,0.16862,0.72632,0.070702,0.073038,0.25199,0.66511,0.73512,0.15523,0.92259,0.65312,0.082295,0.40499,0.5999,no
0.7112,0.17031,0.721,0.06635,0.075874,0.34374,0.66971,0.68527,0.12541,0.834,0.8396,0.078853,0.31419,0.54553,no
0.71385,0.1779,0.71491,0.066573,0.072572,0.33152,0.59522,0.71873,0.12942,0.75206,0.88745,0.090395,0.42054,0.58939,no
0.70321,0.16724,0.74668,0.067549,0.079956,0.31729,0.6948,0.72883,0.14543,0.7662,0.88617,0.086658,0.39494,0.52557,no
0.78276,0.17154,0.77657,0.066561,0.077729,0.344,0.662,0.56366,0.15847,0.74253,0.89181,0.06908,0.35539,0.5514,no
0.53837,0.17743,0.71813,0.067558,0.082687,0.32238,0.64976,0.63437,0.15155,0.75111,0.89163,0.079757,0.29802,0.50561,no
0.71956,0.18719,0.73448,0.066312,0.084572,0.3503,0.67477,0.66322,0.16442,0.88707,0.84107,0.084063,0.32887,0.51631,no
0.62951,0.19435,0.71703,0.065775,0.080445,0.35272,0.62147,0.70631,0.1744,0.82037,0.88978,0.076145,0.31154,0.49641,no
0.7803,0.15962,0.72344,0.066531,0.075437,0.32982,0.66891,0.47783,0.18663,0.74832,0.88967,0.076682,0.26201,0.51796,no
0.70713,0.18056,0.70616,0.070837,0.096432,0.44594,0.61658,0.61355,0.15751,0.75016,0.89199,0.078986,0.29239,0.50121,no
0.54893,0.22817,0.7113,0.066544,0.077595,0.37902,0.58102,0.73342,0.14667,0.74955,0.88854,0.078781,0.43489,0.66389,no
0.73545,0.14778,0.72725,0.066651,0.080934,0.32516,0.6722,0.59927,0.14591,0.87446,0.85248,0.067606,0.26293,0.55227,no
0.64211,0.16222,0.72742,0.066561,0.071826,0.27786,0.64303,0.63925,0.15651,0.79506,0.87163,0.07576,0.3378,0.56435,no
0.55209,0.22519,0.70731,0.065208,0.08366,0.32534,0.54086,0.71816,0.15935,0.85624,0.86307,0.085097,0.42256,0.59314,no
0.73851,0.14368,0.72778,0.071892,0.069966,0.32249,0.66317,0.64522,0.14774,0.7546,0.89183,0.072047,0.32485,0.5559,no
0.74361,0.14823,0.83158,0.066349,0.069426,0.35652,0.55714,0.54166,0.15306,0.78515,0.84624,0.067385,0.24859,0.54274,no
0.72265,0.18964,0.81222,0.066567,0.083674,0.3337,0.67852,0.69811,0.17708,0.8101,0.75076,0.084085,0.4243,0.64131,no
0.62317,0.17938,0.72618,0.077701,0.076631,0.275,0.76355,0.34634,0.22149,0.87675,0.79746,0.089126,0.39397,0.5615,no
0.62272,0.18869,0.7277,0.071578,0.080173,0.32839,0.71091,0.60452,0.16316,0.75422,0.88854,0.081861,0.32097,0.42347,no
0.73212,0.14122,0.73364,0.066495,0.065224,0.35674,0.69723,0.50697,0.10698,0.90078,0.82425,0.067563,0.40647,0.77049,no
0.73168,0.14071,0.74091,0.066353,0.069978,0.32666,0.74685,0.58196,0.14028,0.84982,0.8499,0.076327,0.27398,0.56441,no
0.69425,0.16494,0.77288,0.066594,0.07265,0.30562,0.75397,0.547,0.19199,0.78326,0.87374,0.08614,0.40493,0.56296,no
0.56346,0.15405,0.71715,0.066559,0.056391,0.34919,0.82675,0.60463,0.19878,0.74309,0.89203,0.088204,0.41198,0.52739,no
0.64332,0.15762,0.72031,0.066279,0.073431,0.3644,0.74336,0.67171,0.14787,0.75362,0.89057,0.073793,0.35629,0.58008,no
0.64883,0.18387,0.73386,0.066018,0.076248,0.31505,0.7682,0.6471,0.14199,0.75427,0.88786,0.075478,0.27291,0.53968,no
0.68455,0.17658,0.73024,0.066287,0.079108,0.37472,0.71105,0.67546,0.15824,0.75133,0.88949,0.080804,0.36768,0.53716,no
0.7111,0.17278,0.72841,0.06614,0.071165,0.3115,0.65191,0.69932,0.17029,0.76228,0.88704,0.088048,0.43512,0.65324,no
0.70537,0.15912,0.72934,0.06656,0.07289,0.30811,0.69783,0.66621,0.13153,0.77353,0.89178,0.050222,0.269,0.59364,no
0.72099,0.11199,0.7309,0.066561,0.058647,0.38454,0.66687,0.45181,0.16474,0.7448,0.88564,0.066205,0.27455,0.56474,no
0.56122,0.15675,0.7676,0.066508,0.060661,0.27292,0.71531,0.40844,0.20082,0.74548,0.88607,0.078695,0.36949,0.49317,no
0.71584,0.14867,0.87262,0.066536,0.074142,0.35616,0.76486,0.18693,0.25528,0.71489,0.88885,0.072713,0.33466,0.51165,no
0.62485,0.19439,0.73416,0.066561,0.077158,0.3372,0.67277,0.50237,0.17595,0.77487,0.88082,0.083835,0.26871,0.48039,no
0.73053,0.14305,0.72294,0.066466,0.071353,0.38602,0.71244,0.69397,0.11414,0.86867,0.85455,0.073326,0.28981,0.57966,no
0.49982,0.18689,0.72588,0.067587,0.070743,0.32644,0.70172,0.58557,0.12512,0.80178,0.86182,0.077661,0.32226,0.59276,no
0.67452,0.16661,0.72713,0.066514,0.08628,0.34029,0.69333,0.60293,0.14907,0.75095,0.8773,0.081789,0.41639,0.66767,no
0.6811,0.17872,0.73959,0.067249,0.093197,0.36596,0.62724,0.69625,0.17033,0.79487,0.86734,0.087228,0.43311,0.60696,no
0.57361,0.19755,0.72151,0.065606,0.097448,0.41592,0.62509,0.71329,0.15982,0.86053,0.85282,0.084012,0.39513,0.53819,no
0.6679,0.20057,0.72053,0.066555,0.09437,0.41332,0.70666,0.50932,0.17348,0.87375,0.79812,0.080638,0.288,0.55032,no
0.76603,0.14598,0.73187,0.066502,0.076909,0.36516,0.76946,0.5941,0.18659,0.76735,0.86569,0.09009,0.39579,0.50649,no
0.70051,0.18086,0.73125,0.06649,0.088037,0.30392,0.60371,0.70549,0.18983,0.76164,0.87643,0.091833,0.44058,0.60099,no
0.69538,0.15278,0.71879,0.066461,0.082185,0.37445,0.70569,0.55449,0.20458,0.89764,0.82917,0.090756,0.44268,0.66219,no
0.56032,0.15702,0.72113,0.06656,0.071323,0.35251,0.71505,0.28241,0.24061,0.85465,0.83934,0.079788,0.25014,0.45087,no
0.72824,0.14379,0.73209,0.066353,0.070082,0.35794,0.75408,0.33839,0.2198,0.81883,0.85858,0.082611,0.24111,0.45346,no
0.69725,0.15713,0.72334,0.066234,0.07371,0.34896,0.73119,0.67811,0.15386,0.7665,0.88046,0.084619,0.31841,0.50112,no
0.72664,0.14061,0.71191,0.06653,0.07616,0.36995,0.74824,0.70606,0.12615,0.86268,0.85634,0.076393,0.40768,0.62923,no
0.55853,0.1529,0.7326,0.067494,0.065624,0.3713,0.71053,0.6067,0.14408,0.86909,0.85598,0.072444,0.31392,0.55905,no
0.72057,0.16868,0.71586,0.080649,0.096975,0.3919,0.70785,0.56097,0.17187,0.76177,0.88634,0.079232,0.33365,0.52185,no
0.71691,0.19582,0.73131,0.066322,0.10797,0.41476,0.54334,0.28263,0.13039,0.77417,0.92147,0.044233,0.22467,0.73907,no
0.62903,0.23554,0.73425,0.066561,0.13583,0.49954,0.50908,0.76537,0.1367,0.79052,0.81102,0.083576,0.40571,0.50038,no
0.74161,0.091063,0.73317,0.066561,0.055376,0.43268,0.79913,0.75979,0.10802,0.75956,0.89202,0.069057,0.46135,0.70479,no
0.73906,0.087629,0.73346,0.066561,0.051958,0.42515,0.76794,0.84417,0.090584,0.75679,0.89201,0.069993,0.48732,0.70263,no
0.70283,0.14146,0.72806,0.066525,0.070379,0.40552,0.72781,0.79184,0.098754,0.75007,0.89198,0.082662,0.51196,0.69893,no
0.73017,0.070906,0.7295,0.066356,0.05037,0.39202,0.79389,0.83127,0.087078,0.76879,0.89167,0.079275,0.50544,0.67141,no
0.71713,0.097097,0.73135,0.06624,0.052272,0.38575,0.7715,0.7027,0.10802,0.77955,0.89162,0.0651,0.32236,0.60371,no
0.7262,0.077223,0.73457,0.06653,0.052069,0.40057,0.77987,0.7225,0.11188,0.76442,0.89202,0.062194,0.37598,0.62815,no
0.77398,0.10299,0.74022,0.066561,0.066355,0.38229,0.76386,0.75351,0.10926,0.75789,0.89201,0.072457,0.47226,0.72825,no
0.67614,0.118,0.73151,0.066444,0.06041,0.41328,0.74381,0.70804,0.09813,0.7581,0.89154,0.065668,0.45931,0.75976,no
0.75377,0.072379,0.72522,0.066698,0.055068,0.43595,0.7721,0.72064,0.13795,0.76479,0.89168,0.085132,0.48842,0.6403,no
0.65882,0.11927,0.73534,0.066539,0.055971,0.37472,0.76344,0.60965,0.13395,0.74913,0.89077,0.060784,0.39541,0.68033,no
0.66912,0.12172,0.74041,0.066407,0.074629,0.39045,0.78054,0.69224,0.1605,0.76573,0.89181,0.085159,0.42299,0.56183,no
0.761,0.10031,0.73577,0.066452,0.059837,0.39456,0.75657,0.65628,0.14595,0.75531,0.89203,0.069139,0.36345,0.57725,no
0.72506,0.14162,0.73545,0.066557,0.069991,0.39859,0.76078,0.72562,0.10651,0.76197,0.89202,0.069552,0.43691,0.66572,no
0.69209,0.1008,0.73563,0.066478,0.049787,0.32892,0.75184,0.69814,0.092677,0.7449,0.89198,0.064442,0.32871,0.6308,no
0.7368,0.10764,0.73599,0.068314,0.054474,0.41601,0.76214,0.73984,0.096719,0.74236,0.89203,0.071113,0.4659,0.72701,no
0.75216,0.09321,0.74046,0.066511,0.051057,0.36019,0.77251,0.7224,0.083404,0.73901,0.8916,0.069215,0.47673,0.77546,no
0.76021,0.11529,0.7406,0.066559,0.066749,0.40753,0.77923,0.74444,0.1129,0.76789,0.89196,0.068536,0.40171,0.61722,no
0.68075,0.12464,0.73123,0.066525,0.060747,0.42511,0.72408,0.68462,0.12616,0.76507,0.892,0.064544,0.32732,0.60743,no
0.71801,0.1059,0.73748,0.067196,0.060328,0.43529,0.72755,0.75458,0.11591,0.75969,0.89203,0.06927,0.4713,0.73376,no
0.74958,0.11042,0.73748,0.069276,0.067037,0.40722,0.77412,0.68017,0.1001,0.74267,0.89201,0.074534,0.39506,0.67737,no
0.70714,0.096521,0.732,0.066559,0.055587,0.39953,0.7594,0.75773,0.075384,0.74648,0.89185,0.0668,0.43729,0.68559,no
0.72891,0.12775,0.73193,0.066567,0.071363,0.37241,0.75455,0.74793,0.1001,0.76816,0.89186,0.060848,0.36922,0.63196,no
0.6755,0.10057,0.74015,0.066559,0.054148,0.32901,0.81276,0.7848,0.11512,0.7691,0.89203,0.07832,0.48413,0.6524,no
0.65698,0.079748,0.73203,0.066492,0.044568,0.36128,0.80674,0.74385,0.084365,0.75108,0.89188,0.061451,0.33387,0.61617,no
0.73366,0.095677,0.75297,0.066561,0.060526,0.36755,0.80345,0.75289,0.076175,0.74171,0.89194,0.06236,0.42904,0.69525,no
0.36828,0.16725,0.72821,0.066521,0.054598,0.33492,0.66539,0.81127,0.085036,0.75969,0.89143,0.064862,0.4683,0.70029,no
0.6571,0.085373,0.72383,0.06652,0.062245,0.44632,0.815,0.79529,0.11497,0.76759,0.89188,0.073203,0.46781,0.6365,no
0.66239,0.12867,0.73108,0.066594,0.064511,0.39637,0.77563,0.76872,0.11407,0.77614,0.89199,0.074068,0.45824,0.63467,no
0.64897,0.11668,0.73475,0.067102,0.056052,0.32312,0.78364,0.72084,0.10265,0.76648,0.89197,0.068039,0.33937,0.59946,no
0.65176,0.13116,0.73061,0.065904,0.056476,0.27938,0.7566,0.64522,0.12569,0.7528,0.89195,0.095084,0.49515,0.69993,no
0.65487,0.083406,0.73319,0.066543,0.047133,0.35187,0.827,0.75602,0.12051,0.75713,0.89183,0.070173,0.47316,0.74151,no
0.66005,0.14326,0.73759,0.066551,0.058488,0.34532,0.75916,0.71717,0.13191,0.76234,0.89171,0.075862,0.47226,0.65733,no
0.66106,0.088434,0.73471,0.066335,0.050209,0.34843,0.8046,0.65742,0.15721,0.76072,0.89203,0.077256,0.37559,0.57853,no
0.64616,0.14289,0.72949,0.11604,0.074568,0.4091,0.76079,0.67855,0.11946,0.75654,0.89203,0.071647,0.34194,0.60806,no
0.68109,0.091604,0.73391,0.066559,0.056142,0.39937,0.81716,0.74316,0.083418,0.74569,0.89202,0.081054,0.5148,0.76501,no
0.69014,0.12844,0.73758,0.066494,0.068001,0.35895,0.78559,0.78626,0.065572,0.74607,0.8919,0.061358,0.4693,0.7769,no
0.62357,0.11765,0.72085,0.066203,0.05056,0.37011,0.79393,0.78514,0.096318,0.7722,0.89155,0.075631,0.46485,0.64191,no
0.75895,0.11431,0.74047,0.066561,0.070715,0.41291,0.77477,0.69304,0.14246,0.77311,0.89179,0.087938,0.45792,0.60843,no
0.66732,0.13657,0.72802,0.066043,0.057662,0.39874,0.74115,0.55564,0.16132,0.7479,0.89199,0.064158,0.2997,0.59902,no
0.71087,0.12561,0.74267,0.066556,0.069254,0.40316,0.74781,0.66306,0.13423,0.75374,0.89203,0.072036,0.46174,0.73875,no
0.72924,0.10293,0.72783,0.066564,0.05508,0.41244,0.75556,0.73682,0.10329,0.75232,0.89182,0.071273,0.44655,0.67137,no
0.73803,0.13318,0.72528,0.066219,0.071935,0.42352,0.7219,0.58011,0.13608,0.74378,0.89111,0.10978,0.45064,0.64191,no
0.72399,0.08835,0.7436,0.066512,0.054795,0.4104,0.77353,0.61851,0.13996,0.75558,0.89202,0.069205,0.32476,0.61686,no
0.71412,0.13496,0.75347,0.064645,0.067158,0.35154,0.72618,0.69306,0.095864,0.74785,0.892,0.065432,0.45275,0.7556,no
0.7652,0.098982,0.74214,0.067679,0.063434,0.36519,0.75407,0.75034,0.10731,0.76247,0.89175,0.076209,0.47537,0.66546,no
0.71754,0.10689,0.7328,0.066565,0.053799,0.3888,0.76314,0.70708,0.12181,0.75952,0.89202,0.075011,0.46671,0.67893,no
0.7967,0.12339,0.7438,0.066262,0.076293,0.44959,0.74036,0.7021,0.10312,0.75253,0.89201,0.069885,0.45378,0.71062,no
0.75829,0.080102,0.74088,0.066556,0.05536,0.40932,0.80662,0.73791,0.078367,0.73906,0.8919,0.06832,0.47893,0.77851,no
0.64817,0.12112,0.72864,0.066559,0.046566,0.3945,0.75577,0.84754,0.094288,0.75833,0.89113,0.060217,0.45577,0.7206,no
0.73053,0.097015,0.73691,0.066538,0.05667,0.40811,0.76303,0.86415,0.16063,0.80027,0.891,0.10263,0.36313,0.59184,no
0.47774,0.3596,0.69068,0.064646,0.32599,0.89551,0.48817,0.47935,0.39526,0.71292,0.89124,0.4094,0.81232,0.35781,no
0.48162,0.35657,0.70934,0.064393,0.29339,0.82413,0.56866,0.41275,0.32585,0.7095,0.89164,0.39965,0.7786,0.565,no
0.5003,0.34294,0.69769,0.065148,0.31885,0.84651,0.48838,0.5562,0.22211,0.7465,0.87555,0.34767,0.91302,0.51244,no
0.4959,0.34744,0.70427,0.064897,0.31723,0.87211,0.51205,0.53042,0.32065,0.74144,0.87645,0.32082,0.78543,0.41406,no
0.50178,0.44497,0.70978,0.068687,0.29365,0.80878,0.4328,0.47451,0.43953,0.72644,0.89097,0.39425,0.85116,0.45477,no
0.40506,0.47789,0.7254,0.067044,0.39145,0.7924,0.43133,0.52525,0.34268,0.74051,0.89191,0.32814,0.61461,0.39576,no
0.53953,0.33271,0.78689,0.065785,0.30474,0.87728,0.47967,0.46037,0.26626,0.71383,0.89163,0.3553,0.73347,0.54969,no
0.5285,0.33876,0.70526,0.065124,0.32302,0.9011,0.50375,0.59415,0.28331,0.73817,0.87818,0.35438,0.87056,0.40045,no
0.53383,0.37895,0.71026,0.066262,0.30015,0.87799,0.5194,0.50504,0.39583,0.72881,0.88918,0.37425,0.76961,0.31199,no
0.53763,0.30192,0.70897,0.06648,0.29378,0.81477,0.57248,0.48958,0.38552,0.71575,0.8921,0.45428,0.823,0.44889,no
0.54291,0.3139,0.711,0.073836,0.31701,0.90456,0.5639,0.45333,0.28599,0.71225,0.8814,0.35137,0.79076,0.56344,no
0.55777,0.31119,0.71124,0.066561,0.3022,0.91036,0.54158,0.59247,0.26176,0.735,0.86514,0.35291,0.89274,0.46815,no
0.55329,0.35605,0.7177,0.065956,0.32088,0.91808,0.49877,0.4705,0.44516,0.72142,0.88443,0.37412,0.64708,0.33668,no
0.54103,0.36968,0.71267,0.066168,0.33896,0.9233,0.46028,0.46937,0.32189,0.72083,0.89069,0.42057,0.7498,0.51837,no
0.58621,0.35792,0.71943,0.066512,0.37806,0.89683,0.44239,0.5337,0.28049,0.74385,0.85357,0.38839,0.75217,0.52089,no
0.54416,0.33386,0.72445,0.066348,0.30415,0.88135,0.53647,0.51081,0.44099,0.73862,0.88966,0.38056,0.81904,0.25398,no
0.58229,0.31661,0.70995,0.066556,0.32071,0.91803,0.57138,0.50796,0.4099,0.73471,0.8895,0.36025,0.83309,0.41109,no
0.5453,0.44181,0.71555,0.064098,0.41406,0.91864,0.32251,0.5611,0.37131,0.74999,0.88839,0.32524,0.75196,0.37003,no
0.53259,0.35059,0.71712,0.066114,0.32812,0.89748,0.53588,0.49519,0.42459,0.74536,0.89665,0.43517,0.83787,0.41755,no
0.57275,0.36572,0.71607,0.064749,0.36568,0.92216,0.46183,0.059664,0.49668,0.57461,0.88262,0.35328,0.79135,0.72683,no
0.54107,0.37352,0.72273,0.066385,0.33288,0.91293,0.42752,0.58351,0.30758,0.78569,0.84803,0.36748,0.74756,0.35719,no
0.58292,0.30648,0.72264,0.065676,0.30375,0.80241,0.45665,0.46964,0.46655,0.72796,0.88628,0.37501,0.82367,0.25245,no
0.5091,0.42227,0.70362,0.054401,0.36588,0.82163,0.40389,0.47223,0.49786,0.73125,0.89041,0.40902,0.72699,0.26058,no
0.59384,0.36,0.71948,0.066564,0.34655,0.87927,0.48775,0.52192,0.42781,0.7401,0.89117,0.39919,0.71593,0.30289,no
0.62749,0.39024,0.73501,0.066353,0.34924,0.87409,0.44905,0.54609,0.34817,0.73846,0.89154,0.39189,0.89722,0.4288,no
0.561,0.29398,0.72853,0.06662,0.28486,0.68012,0.53383,0.47896,0.24576,0.71985,0.88631,0.34812,0.86893,0.55883,no
0.44636,0.34154,0.72129,0.050567,0.26952,0.74422,0.45883,0.57646,0.301,0.74055,0.87793,0.37199,0.8546,0.36346,no
0.48953,0.34421,0.69572,0.06512,0.26653,0.77812,0.54074,0.49234,0.42682,0.72793,0.88955,0.40039,0.86429,0.32802,no
0.52264,0.41718,0.69424,0.066561,0.36631,0.86319,0.50883,0.53105,0.38052,0.73936,0.8879,0.41189,0.72196,0.33764,no
0.44685,0.44535,0.68456,0.06687,0.34051,0.88329,0.41975,0.55881,0.31511,0.72802,0.89178,0.40067,0.91786,0.46667,no
0.48309,0.30298,0.71186,0.56367,0.28807,0.89327,0.59132,0.44371,0.29029,0.71989,0.8907,0.37557,0.8017,0.57575,no
0.49479,0.34448,0.69444,0.065976,0.28228,0.75258,0.55573,0.57674,0.22482,0.75384,0.87279,0.35414,0.89784,0.53214,no
0.43344,0.40465,0.68355,0.066903,0.3468,0.85473,0.45801,0.54974,0.36795,0.74143,0.88532,0.37671,0.72824,0.39433,no
0.48767,0.25787,0.69133,0.87717,0.24052,0.82809,0.63013,0.52467,0.39483,0.74031,0.88882,0.37137,0.67322,0.34435,no
0.44414,0.43252,0.68958,0.066255,0.32343,0.87701,0.44028,0.52482,0.37599,0.73532,0.88888,0.38247,0.87478,0.41741,no
0.52734,0.32846,0.70951,0.065375,0.29152,0.83865,0.53979,0.56425,0.34134,0.73012,0.89144,0.40711,0.84305,0.45848,no
0.48468,0.35777,0.69873,0.066376,0.29077,0.83608,0.57725,0.48235,0.25207,0.72241,0.8875,0.35126,0.81971,0.60644,no
0.46707,0.3986,0.70827,0.084272,0.27351,0.72909,0.50654,0.55959,0.2777,0.72782,0.8805,0.36248,0.80026,0.39974,no
0.4269,0.39415,0.69356,0.071034,0.34898,0.85093,0.46269,0.51528,0.35617,0.73017,0.88709,0.36716,0.68393,0.42453,no
0.49445,0.40333,0.70532,0.065003,0.29903,0.87169,0.45812,0.53993,0.33882,0.73525,0.88918,0.39321,0.88973,0.39079,no
0.54283,0.36891,0.71346,0.065228,0.32885,0.82178,0.45046,0.57665,0.30694,0.73113,0.8915,0.39613,0.77796,0.42726,no
0.49923,0.43804,0.69127,0.065207,0.40446,0.88613,0.4402,0.49797,0.24368,0.72601,0.87143,0.3797,0.8955,0.50722,no
0.49934,0.41574,0.70231,0.066548,0.33081,0.84659,0.50928,0.548,0.36417,0.734,0.88669,0.44754,0.92086,0.4816,no
0.57301,0.3743,0.71137,0.066554,0.38551,0.91423,0.56069,0.57294,0.33799,0.74341,0.89174,0.38068,0.71,0.3907,no
0.50466,0.47905,0.7014,0.066564,0.40998,0.9235,0.38383,0.55007,0.27058,0.72284,0.8919,0.34069,0.84644,0.54008,no
0.539,0.32925,0.70841,0.066458,0.34815,0.89085,0.60924,0.53955,0.22946,0.73911,0.8795,0.36026,0.87391,0.56358,no
0.62466,0.38926,0.72446,0.066158,0.35996,0.89712,0.51379,0.60507,0.3265,0.75103,0.87772,0.39088,0.92588,0.3675,no
0.60936,0.40401,0.85822,0.066389,0.35783,0.90768,0.45214,0.50776,0.43325,0.73365,0.89005,0.42303,0.90014,0.32283,no
0.57068,0.37482,0.81072,0.06665,0.40343,0.85473,0.56978,0.56778,0.38447,0.74584,0.88976,0.40797,0.85927,0.41551,no
0.5353,0.38217,0.71903,0.066555,0.34297,0.93023,0.48733,0.61512,0.32028,0.75287,0.89203,0.40441,0.93257,0.40381,no
0.51185,0.21754,0.68787,0.066005,0.22779,0.82775,0.66767,0.50824,0.1916,0.70589,0.89006,0.27908,0.8089,0.70346,no
0.57702,0.22609,0.78534,0.29811,0.21478,0.80665,0.60862,0.49704,0.23072,0.70355,0.8891,0.30093,0.80943,0.63014,no
0.53658,0.22923,0.69812,0.066516,0.20807,0.7965,0.60162,0.51355,0.23941,0.71002,0.89131,0.30812,0.8543,0.49908,no
0.55146,0.19542,1,0.066504,0.20142,0.79514,0.65636,0.52282,0.19364,0.71394,0.89138,0.29796,0.75467,0.53534,no
0.47283,0.28137,0.70039,0.066557,0.23873,0.80946,0.62493,0.5401,0.23072,0.72412,0.88943,0.26539,0.64919,0.54172,no
0.49536,0.24498,0.69738,0.066317,0.23098,0.83614,0.71777,0.52053,0.27959,0.73092,0.8913,0.30134,0.83602,0.43746,no
0.49041,0.25852,0.70627,0.066444,0.22401,0.81427,0.61508,0.50065,0.25121,0.71171,0.89134,0.29951,0.72563,0.70123,no
0.51264,0.26202,0.70209,0.066184,0.23308,0.75295,0.61121,0.50042,0.21724,0.70876,0.88754,0.29803,0.82722,0.5055,no
0.48169,0.24689,0.69816,0.066242,0.235,0.83301,0.59313,0.54261,0.26644,0.73506,0.89127,0.28675,0.79433,0.43015,no
0.48837,0.28251,0.70578,0.066283,0.23819,0.80555,0.60337,0.49936,0.26021,0.71489,0.89141,0.30779,0.68573,0.55253,no
0.4992,0.2506,0.69765,0.067392,0.23501,0.79359,0.66122,0.51483,0.1796,0.72378,0.89172,0.29334,0.82605,0.52448,no
0.44603,0.23694,0.69865,0.066273,0.18419,0.77401,0.78234,0.55935,0.18512,0.71802,0.88819,0.29154,0.82313,0.48727,no
0.48082,0.26173,0.70465,0.066507,0.23814,0.73124,0.73072,0.51936,0.26527,0.72561,0.89051,0.3059,0.78787,0.67707,no
0.48304,0.18389,0.69376,0.066486,0.17205,0.79203,0.69571,0.48561,0.20423,0.70322,0.89058,0.2373,0.67783,0.55497,no
0.48029,0.27651,0.70406,0.066494,0.23761,0.76081,0.66806,0.49331,0.23362,0.70397,0.88965,0.29306,0.74155,0.72484,no
0.52185,0.2208,0.69375,0.070398,0.2196,0.81135,0.60218,0.48034,0.30592,0.72265,0.89039,0.29882,0.73485,0.66308,no
0.4368,0.21913,0.68371,0.13224,0.15309,0.80543,0.70976,0.47155,0.29805,0.7188,0.89138,0.3189,0.83846,0.45448,no
0.48297,0.23688,0.69846,0.066543,0.23068,0.7977,0.74395,0.48147,0.24716,0.69864,0.8913,0.31,0.70041,0.66054,no
0.50625,0.24641,0.70143,0.066346,0.24115,0.81447,0.6135,0.47995,0.23865,0.69805,0.88803,0.29197,0.75531,0.66589,no
0.47518,0.27029,0.69519,0.066383,0.207,0.80618,0.6334,0.48872,0.27092,0.71825,0.89012,0.29549,0.77153,0.6302,no
0.5101,0.2778,0.69765,0.066344,0.27735,0.80439,0.64048,0.52521,0.22988,0.71297,0.89147,0.30148,0.86157,0.55136,no
0.49282,0.24475,0.69596,0.066514,0.20424,0.72259,0.79181,0.50069,0.229,0.70401,0.89048,0.29834,0.69875,0.66394,no
0.47939,0.24803,0.69736,0.066483,0.2156,0.7361,0.65385,0.52226,0.25784,0.73036,0.88974,0.29638,0.78259,0.4442,no
0.47174,0.25008,0.69723,0.066413,0.21968,0.74073,0.6715,0.45715,0.26452,0.71453,0.89107,0.25316,0.71448,0.49533,no
0.50477,0.2417,0.70706,0.070252,0.21403,0.79791,0.65538,0.51789,0.23974,0.72231,0.89175,0.29142,0.82618,0.48785,no
0.46695,0.23823,0.70157,0.066486,0.22005,0.77587,0.66182,0.49551,0.24904,0.71454,0.88903,0.31336,0.84262,0.48632,no
0.48036,0.25137,0.69966,0.066067,0.22411,0.73954,0.6415,0.51288,0.2831,0.72748,0.89031,0.27987,0.65779,0.54117,no
0.45891,0.22988,0.69766,0.066396,0.1653,0.74337,0.66299,0.51024,0.28283,0.72881,0.89147,0.30734,0.75836,0.44016,no
0.47441,0.24291,0.69754,0.066453,0.22429,0.81272,0.70894,0.50493,0.24594,0.71194,0.89136,0.29869,0.68869,0.55885,no
0.47999,0.25474,0.6955,0.066432,0.22001,0.78144,0.70046,0.49735,0.23492,0.7048,0.88919,0.3154,0.78948,0.50925,no
0.46312,0.24472,0.69123,0.066382,0.22183,0.80557,0.67396,0.49461,0.28549,0.7236,0.88948,0.33102,0.83645,0.4213,no
0.5023,0.2345,0.70239,0.066658,0.22202,0.76577,0.66794,0.49832,0.2526,0.71906,0.89077,0.28426,0.66974,0.5637,no
0.46178,0.22895,0.70086,0.56387,0.1694,0.77712,0.65922,0.48598,0.20639,0.70085,0.89091,0.30898,0.85886,0.55779,no
0.47665,0.22502,0.69297,0.066447,0.22078,0.8005,0.67912,0.48282,0.24915,0.7156,0.88537,0.2836,0.67375,0.68306,no
0.47792,0.2738,0.70439,0.066301,0.23075,0.78007,0.63427,0.47252,0.3325,0.72543,0.89163,0.29857,0.67349,0.43198,no
0.47982,0.24053,0.69668,0.065752,0.22257,0.83232,0.63108,0.49261,0.262,0.71587,0.89152,0.31298,0.83506,0.46775,no
0.47896,0.2421,0.69189,0.066243,0.22811,0.79348,0.71524,0.50316,0.22885,0.70668,0.88819,0.28813,0.82752,0.66869,no
0.47608,0.29102,0.69568,0.066186,0.22687,0.769,0.68218,0.50529,0.28105,0.72387,0.89014,0.32057,0.78625,0.43824,no
0.52327,0.20131,0.68272,0.066326,0.22088,0.77865,0.69231,0.48834,0.24627,0.7051,0.89132,0.30582,0.8247,0.49234,no
0.48295,0.26248,0.70472,0.066285,0.21907,0.75874,0.65574,0.4868,0.21757,0.69923,0.89083,0.30696,0.76394,0.7547,no
0.48075,0.2399,0.70295,0.066189,0.21948,0.73511,0.6253,0.49017,0.25295,0.70749,0.88806,0.30176,0.68623,0.60965,no
0.48099,0.23499,0.69804,0.066545,0.21966,0.78999,0.69343,0.48003,0.27875,0.71649,0.89059,0.30301,0.80537,0.58955,no
0.48395,0.2454,0.69373,0.069352,0.22161,0.76787,0.6769,0.48298,0.25155,0.70652,0.89152,0.30245,0.69301,0.62609,no
0.45071,0.20597,0.70559,0.066125,0.17679,0.69199,0.70082,0.48795,0.23995,0.70223,0.89007,0.30379,0.69186,0.61874,no
0.47484,0.24137,0.70755,0.066388,0.23516,0.80826,0.64426,0.48217,0.27889,0.71897,0.88923,0.31515,0.80773,0.6192,no
0.47033,0.22556,0.66898,0.06631,0.23125,0.80879,0.68024,0.48635,0.29521,0.72001,0.89164,0.32913,0.76857,0.67985,no
0.49483,0.25418,0.70049,0.06636,0.23102,0.76597,0.65202,0.4861,0.22143,0.70423,0.88983,0.30753,0.75646,0.56487,no
0.47513,0.23652,0.69278,0.066219,0.21976,0.78277,0.72124,0.45621,0.2237,0.68617,0.88482,0.2869,0.77067,0.65673,no
0.48486,0.21619,0.6855,0.066255,0.21332,0.79423,0.69064,0.49,0.31009,0.72536,0.8885,0.29891,0.71153,0.59144,no
0.48837,0.28148,0.69664,0.066203,0.22957,0.78931,0.63778,0.48808,0.25538,0.70802,0.89134,0.29431,0.68085,0.52834,no
0.25284,0.15855,0.69306,0.066561,0.058623,0.13144,0.49257,0.23189,0.1699,0.71226,0.88918,0.076869,0.23464,0.3678,no
0.38811,0.15641,0.6932,0.066415,0.053121,0.18166,0.49753,0.21902,0.19686,0.71846,0.89129,0.070674,0.24969,0.31636,no
0.38753,0.086083,0.68645,0.066564,0.040475,0.14217,0.45579,0.22343,0.17416,0.70683,0.89189,0.066789,0.22334,0.34419,no
0.40004,0.13343,0.69555,0.085187,0.055137,0.17979,0.44879,0.4746,0.1548,0.72897,0.89201,0.076955,0.2718,0.37379,no
0.35392,0.11813,0.70713,0.066521,0.04923,0.17127,0.54014,0.3922,0.14488,0.71233,0.89004,0.071549,0.20417,0.34814,no
0.43491,0.12268,0.69967,0.06651,0.055822,0.14067,0.41231,0.30159,0.20217,0.73401,0.89052,0.086596,0.29445,0.40322,no
0.062102,0.23155,0.64818,0.066615,0.070828,0.21165,0.44124,0.45149,0.11986,0.72661,0.89201,0.069098,0.17175,0.32154,no
0.37572,0.099892,0.70245,0.066486,0.053054,0.17271,0.42115,0.37467,0.12735,0.72586,0.88916,0.07079,0.26023,0.42537,no
0.18234,0.16634,0.70101,0.067032,0.061187,0.14201,0.47118,0.53752,0.14394,0.72084,0.89134,0.08432,0.20748,0.27797,no
0.50818,0.12033,0.72664,0.066436,0.057445,0.15456,0.45551,0.50528,0.091203,0.70319,0.89203,0.045199,0.24067,0.53315,no
0.18349,0.17114,0.70291,0.08139,0.075793,0.24086,0.49012,0.35648,0.13933,0.71858,0.88922,0.077082,0.29283,0.46693,no
0.40532,0.17189,0.69282,0.066433,0.063698,0.083143,0.38214,0.45387,0.17195,0.72812,0.88929,0.090717,0.26833,0.35995,no
0.17438,0.17002,0.685,0.066264,0.056796,0.16443,0.42869,0.23417,0.19084,0.72024,0.89016,0.074021,0.23727,0.27067,no
0.014406,0.43616,0.42057,0.074963,0.2635,0.43022,0.42565,0.34244,0.14051,0.72621,0.88788,0.055579,0.18839,0.4413,no
0.095304,0.26212,0.63127,0.066564,0.054854,0.12851,0.33458,0.4279,0.16577,0.725,0.89195,0.081768,0.26502,0.366,no
0.41269,0.15268,0.69769,0.066283,0.052171,0.14079,0.41516,0.46676,0.12162,0.71763,0.8917,0.077534,0.28544,0.43272,no
0.35296,0.11788,0.6776,0.066451,0.046024,0.17925,0.53323,0.43659,0.14173,0.71136,0.89017,0.074597,0.26717,0.37904,no
0.41017,0.11392,0.70638,0.06657,0.047444,0.135,0.47015,0.52125,0.14709,0.73072,0.8919,0.075677,0.18678,0.23261,no
0.42115,0.10288,0.7129,0.067326,0.042428,0.18803,0.47759,0.49626,0.14012,0.71865,0.89137,0.081531,0.2037,0.25974,no
0.45599,0.1106,0.7933,0.066409,0.055121,0.17055,0.47068,0.38798,0.11712,0.68942,0.89244,0.063251,0.19453,0.48056,no
0.39145,0.14078,0.69522,0.066555,0.054445,0.15572,0.52078,0.35406,0.13946,0.67231,0.89213,0.07541,0.25893,0.44495,no
0.38646,0.11602,0.70592,0.067066,0.047349,0.21992,0.50001,0.4768,0.16595,0.72689,0.88807,0.097463,0.21559,0.26279,no
0.47446,0.13259,0.70009,0.066457,0.05631,0.19606,0.55235,0.078797,0.31082,0.71068,0.86891,0.12933,0.32043,0.26865,no
0.52558,0.09365,0.70977,0.066291,0.045961,0.20099,0.57669,0.20662,0.22118,0.70404,0.89204,0.079265,0.27779,0.36485,no
0.010462,0.4205,0.4319,0.066681,0.19912,0.16104,0.31438,0.53569,0.1357,0.72774,0.89196,0.07482,0.20379,0.24183,no
0.12806,0.20017,0.65287,0.066561,0.065432,0.24747,0.63459,0.12684,0.20147,0.65385,0.89194,0.093279,0.27909,0.3389,no
0.15226,0.1798,0.66274,0.066563,0.056559,0.12851,0.47318,0.5023,0.11075,0.71444,0.89185,0.070333,0.28669,0.41032,no
0.37913,0.12897,0.69175,0.068981,0.04805,0.13308,0.53345,0.46645,0.11977,0.72318,0.89202,0.080321,0.23511,0.29404,no
0.46131,0.1399,0.70087,0.066736,0.06111,0.1377,0.46436,0.46725,0.15181,0.74612,0.88532,0.071021,0.21376,0.35247,no
0.4077,0.12857,0.6865,0.066562,0.053029,0.085883,0.51882,0.098194,0.24406,0.65646,0.89148,0.06569,0.23784,0.33449,no
0.21162,0.1386,0.67129,0.066531,0.053989,0.17207,0.48882,0.13441,0.23542,1,0,0.065472,0.26009,0.3685,no
0.47761,0.12715,0.69871,0.06706,0.064254,0.31545,0.46222,0.39208,0.17703,0.70814,0.89196,0.07343,0.26009,0.3685,no
0.36011,0.11686,0.69349,0.066877,0.036838,0.11473,0.47894,0.47794,0.15101,0.71711,0.89192,0.062285,0.27097,0.41685,no
0.49442,0.1123,0.70226,0.066561,0.054595,0.17572,0.47062,0.46887,0.15317,0.72256,0.89125,0.077751,0.17988,0.27769,no
0.43414,0.13661,0.70073,0.066561,0.051699,0.17203,0.4586,0.53587,0.11505,0.70982,0.89172,0.079022,0.24288,0.37021,no
0.22718,0.11306,0.66951,0.066499,0.04525,0.10494,0.47394,0.48644,0.10413,0.72546,0.8912,0.076331,0.22776,0.35481,no
0.45016,0.15498,0.69425,0.06656,0.080419,0.24841,0.57065,0.10883,0.2396,0.66095,0.89202,0.075763,0.34574,0.50968,no
0.46341,0.15019,0.70602,0.070746,0.059782,0.21888,0.5325,0.50879,0.18017,0.7909,0.88204,0.099637,0.24712,0.31381,no
0.44663,0.11675,0.70403,0.066562,0.054055,0.19567,0.51436,0.15549,0.23038,0.69729,0.89,0.07983,0.25762,0.32023,no
0.20671,0.16927,0.67035,0.065784,0.056791,0.18466,0.471,0.16824,0.21854,0.6909,0.89151,0.080106,0.14271,0.20794,no
0.52622,0.094153,0.69912,0.066404,0.049885,0.18425,0.53404,0.49447,0.14856,0.72803,0.89175,0.084393,0.20908,0.27709,no
0.42152,0.13155,0.68134,0.066617,0.056077,0.19961,0.48334,0.44571,0.16146,0.71081,0.88821,0.087815,0.20665,0.34368,no
0.41591,0.14373,0.68228,0.066425,0.053719,0.15964,0.51529,0.46827,0.18678,0.72962,0.88934,0.095742,0.19897,0.20113,no
0.45735,0.10801,0.69879,0.066563,0.049953,0.15359,0.4753,0.45356,0.16688,0.72377,0.89152,0.091842,0.25215,0.31793,no
0.18301,0.13456,0.67701,0.066561,0.035486,0.11735,0.46199,0.44229,0.17128,0.72486,0.8879,0.087844,0.21254,0.28712,no
0.43853,0.11487,0.6938,0.066545,0.05846,0.12163,0.51282,0.23551,0.22242,0.7087,0.89103,0.091671,0.27952,0.24969,no
0.39637,0.12359,0.74638,0.066561,0.044709,0.15262,0.49406,0.12191,0.27818,0.69205,0.89231,0.14573,0.29972,0.3401,no
0.5419,0.098876,0.8089,0.06692,0.048707,0.22714,0.52974,0.0022422,0.88145,0.14203,0.79266,0.24891,0.50983,0.96401,no
0.42192,0.11314,0.70292,0.066565,0.050184,0.24702,0.53832,0.33021,0.21916,0.79576,0.87453,0.11939,0.29194,0.3217,no
0.22401,0.13481,0.68049,0.00036307,0.044647,0.12378,0.46304,0.10091,0.27128,0.65652,0.89075,0.08431,0.22894,0.24653,no
0.61372,0.03005,0.71915,0.066562,0.029619,0.33329,0.83389,0.60171,0.042022,0.72735,0.89185,0.047562,0.42584,0.79791,no
0.61365,0.019005,0.71548,0.066436,0.026172,0.32117,0.84554,0.55505,0.062311,0.74818,0.89185,0.032444,0.32428,0.71284,no
0.57816,0.0047609,0.72028,0.06655,0.017485,0.29936,0.87062,0.59668,0.068025,0.75071,0.89192,0.042012,0.34442,0.67254,no
0.58587,0.046765,0.71964,0.06656,0.02771,0.2684,0.81325,0.59853,0.057567,0.74619,0.89197,0.037251,0.29053,0.6847,no
0.57016,0.022715,0.70898,0.066556,0.021121,0.33013,0.85418,0.56067,0.045922,0.73733,0.89163,0.028511,0.28218,0.74954,no
0.58052,0.051435,0.7127,0.066561,0.03226,0.32191,0.86227,0.60533,0.043995,0.73457,0.89197,0.043648,0.41534,0.8222,no
0.5803,0.041342,0.71165,0.066534,0.029769,0.2688,0.84852,0.65085,0.050986,0.74296,0.89201,0.040113,0.38463,0.7521,no
0.61832,0.029958,0.71988,0.066502,0.030064,0.32471,0.85341,0.62334,0.030859,0.73835,0.89198,0.037475,0.39644,0.80078,no
0.60231,0.046369,0.71924,0.066428,0.029682,0.30264,0.83268,0.61424,0.037785,0.74703,0.89188,0.035271,0.36296,0.74283,no
0.6368,0.0053534,0.7273,0.066525,0.027269,0.30982,0.85392,0.61478,0.058911,0.74179,0.89178,0.044181,0.35872,0.71087,no
0.41677,0.080928,0.70735,0.066543,0.023363,0.31763,0.85562,0.57772,0.072252,0.73909,0.89192,0.037981,0.32916,0.70714,no
0.6139,0.010395,0.72592,0.066537,0.031893,0.35428,0.80294,0.53731,0.09963,0.73862,0.89201,0.0431,0.29615,0.65099,no
0.58641,0.058065,0.71453,0.066561,0.03015,0.28069,0.80876,0.58378,0.051954,0.74604,0.89199,0.037549,0.36961,0.74172,no
0.62484,0.049239,0.71856,0.066549,0.044926,0.42604,0.7968,0.59356,0.062149,0.74857,0.892,0.03731,0.36337,0.72462,no
0.58675,0.03288,0.71792,0.066566,0.043998,0.40572,0.92058,0.58728,0.06895,0.74062,0.89188,0.039325,0.32689,0.69371,no
0.47597,0.07692,0.71201,0.06656,0.02081,0.23972,0.82241,0.64224,0.058035,0.7407,0.89199,0.049475,0.41507,0.74442,no
0.63318,0.012969,0.71647,0.066571,0.026807,0.30237,0.86492,0.61798,0.053506,0.74279,0.89169,0.046672,0.4231,0.79941,no
0.45681,0.09555,0.70204,0.066562,0.03848,0.34397,0.78191,0.59111,0.06555,0.74218,0.89178,0.046556,0.35016,0.70215,no
0.63807,0.047805,0.72382,0.066497,0.034805,0.31494,0.81458,0.55094,0.063631,0.74382,0.89186,0.035899,0.34339,0.7202,no
0.58244,0.10403,0.70723,0.066667,0.049502,0.34467,0.78847,0.63591,0.071928,0.74243,0.89201,0.047209,0.40157,0.72942,no
0.51979,0.081322,0.71175,0.066445,0.032253,0.33026,0.84418,0.56621,0.081064,0.74181,0.8919,0.048166,0.41598,0.75963,no
0.62482,0.026949,0.7237,0.066546,0.026989,0.27867,0.83359,0.54566,0.080161,0.741,0.89196,0.037289,0.36995,0.73607,no
0.5807,0.088803,0.71462,0.066561,0.035284,0.32661,0.79614,0.52381,0.07937,0.74151,0.89191,0.042647,0.36557,0.72314,no
0.6658,0.0027339,0.70247,0.066569,0.033235,0.37343,0.86197,0.62599,0.062544,0.74614,0.89202,0.038219,0.32875,0.6878,no
0.58363,0.065665,0.71821,0.066588,0.031597,0.29113,0.80801,0.62385,0.031232,0.72765,0.89192,0.043568,0.35662,0.71992,no
0.6186,0.030273,0.71728,0.066556,0.029376,0.33058,0.84167,0.62585,0.028376,0.73232,0.8919,0.041176,0.30766,0.69661,no
0.60046,0.050815,0.7227,0.066561,0.038606,0.27247,0.77685,0.63886,0.052824,0.74462,0.89194,0.037405,0.3859,0.78267,no
0.60931,0.079713,0.71744,0.066561,0.046207,0.37753,0.78749,0.65278,0.076719,0.7417,0.89196,0.049446,0.4184,0.72441,no
0.63703,0.061005,0.72235,0.066561,0.048527,0.40513,0.77119,0.55699,0.073864,0.74464,0.8919,0.036999,0.32365,0.69291,no
0.64724,0.086234,0.7287,0.11263,0.077552,0.43337,0.74223,0.59406,0.088397,0.73547,0.89201,0.040218,0.3815,0.73062,no
0.64049,0.029703,0.72444,0.066446,0.039242,0.38771,0.83512,0.58719,0.078555,0.74291,0.89201,0.041616,0.39928,0.76996,no
0.61899,0.034102,0.71724,0.066429,0.038871,0.38539,0.8217,0.60406,0.066896,0.74971,0.89203,0.03486,0.27131,0.67128,no
0.65808,0.082574,0.72368,0.066562,0.040936,0.35326,0.74442,0.63886,0.046258,0.72939,0.89195,0.0466,0.37437,0.70434,no
0.695,0.068621,0.72973,0.066591,0.050301,0.36282,0.76235,0.61136,0.033218,0.72685,0.89178,0.041216,0.4055,0.80072,no
0.60535,0.097719,0.71906,0.066539,0.048767,0.39897,0.77067,0.61517,0.041395,0.74113,0.89202,0.039238,0.29555,0.69344,no
0.65492,0.021239,0.71372,0.066537,0.038258,0.39377,0.84785,0.61887,0.038882,0.7287,0.89201,0.039104,0.31017,0.69799,no
0.63415,0.09517,0.72257,0.11836,0.057816,0.40314,0.7366,0.53364,0.080293,0.73907,0.89145,0.043616,0.39237,0.76654,no
0.64643,0.089873,0.72711,0.066565,0.061638,0.32227,0.6978,0.50214,0.13932,0.72629,0.89201,0.052285,0.41227,0.70443,no
0.032461,0.24707,0.68539,0.066761,0.091629,0.32671,0.45841,0.55084,0.10601,0.73379,0.89197,0.049238,0.37947,0.7038,no
0.55353,0.11724,0.70979,0.093895,0.077439,0.48348,0.57558,0.52984,0.080606,0.74248,0.89195,0.04022,0.33562,0.69521,no
0.56938,0.047888,0.71712,0.066615,0.049595,0.37937,0.85647,0.56104,0.089687,0.74426,0.89202,0.041653,0.31215,0.64024,no
0.46592,0.098497,0.70906,0.066526,0.027122,0.30324,0.82176,0.59975,0.048823,0.74399,0.89202,0.036237,0.28426,0.70534,no
0.59577,0.034106,0.71737,0.066561,0.027999,0.2825,0.81656,0.641,0.024356,0.73109,0.8919,0.050252,0.44403,0.80864,no
0.61122,0.059382,0.71734,0.066561,0.035921,0.33375,0.8268,0.62497,0.01674,0.73995,0.8917,0.044783,0.42633,0.78938,no
0.56619,0.070548,0.74641,0.066497,0.036142,0.32532,0.78752,0.57311,0.039134,0.74489,0.89182,0.027174,0.33545,0.77369,no
0.6638,0,0.7103,0.066559,0.025243,0.31363,0.85527,0.64949,0.071061,0.74299,0.89196,0.042017,0.37401,0.6959,no
0.5271,0.07553,0.70379,0.066588,0.025679,0.27356,0.86308,0.53819,0.073261,0.74125,0.89189,0.037078,0.33335,0.70795,no
0.6544,0.019819,0.72241,0.066561,0.026621,0.26624,0.83764,0.58265,0.11019,0.73835,0.89121,0.059953,0.38026,0.64631,no
0.55876,0.05616,0.72078,0.06656,0.027528,0.30947,0.80049,0.546,0.10247,0.73825,0.89196,0.042459,0.28566,0.66284,no
0.609,0.053821,0.72038,0.066547,0.032282,0.35122,0.79779,0.62817,0.08796,0.75047,0.89201,0.056611,0.40992,0.63383,no
0.62646,0.17429,0.72994,0.060504,0.16121,0.71918,0.58868,0.56545,0.21146,0.74118,0.89194,0.19073,0.54621,0.41665,no
0.61971,0.13789,0.76022,0.066564,0.16835,0.68578,0.63396,0.62584,0.18854,0.75272,0.89202,0.2033,0.74139,0.46187,no
0.61058,0.17235,0.79488,0.06708,0.15456,0.68095,0.5911,0.64101,0.14812,0.73654,0.89197,0.22596,0.76022,0.53102,no
0.62882,0.11506,0.72063,0.066558,0.14595,0.6356,0.56294,0.62634,0.13016,0.72906,0.89195,0.21923,0.72535,0.51789,no
0.61236,0.14336,0.71949,0.066531,0.14734,0.5779,0.61936,0.63059,0.1201,0.73368,0.89162,0.17917,0.71096,0.61606,no
0.62141,0.15223,0.72721,0.065581,0.1695,0.65504,0.59831,0.61675,0.17386,0.74931,0.8918,0.19735,0.73128,0.53662,no
0.64056,0.17659,0.71695,0.066561,0.17008,0.62178,0.5804,0.58472,0.15951,0.7402,0.89202,0.19422,0.55931,0.46391,no
0.5698,0.1581,0.72661,0.066275,0.1305,0.62112,0.56964,0.59217,0.11954,0.7425,0.8917,0.12702,0.45431,0.52254,no
0.61718,0.19672,0.71751,0.066705,0.17844,0.72074,0.58808,0.5843,0.16325,0.74468,0.89196,0.18902,0.61606,0.41918,no
0.61808,0.20456,0.72528,0.066561,0.18352,0.66906,0.55974,0.57731,0.18132,0.74311,0.89133,0.17249,0.50401,0.43695,no
0.66008,0.19255,0.73388,0.066561,0.18691,0.6402,0.53487,0.57345,0.19195,0.74022,0.89203,0.20369,0.72709,0.52863,no
0.61899,0.17882,0.7341,0.066374,0.16647,0.70994,0.56322,0.62019,0.11922,0.73288,0.89195,0.18216,0.71832,0.5766,no
0.62031,0.19743,0.72792,0.066561,0.20089,0.78828,0.55456,0.59492,0.11547,0.7279,0.89197,0.19435,0.56411,0.48651,no
0.64027,0.15235,0.72019,0.066543,0.19319,0.71017,0.55513,0.60503,0.10226,0.7298,0.89172,0.15177,0.50367,0.50749,no
0.59269,0.18741,0.7229,0.066257,0.15607,0.71953,0.51215,0.62017,0.14197,0.73939,0.89195,0.19568,0.55718,0.38979,no
0.60635,0.1388,0.72834,0.066561,0.1639,0.71637,0.55521,0.64455,0.17065,0.74977,0.89185,0.21634,0.6878,0.45726,no
0.62461,0.2053,0.72482,0.066561,0.20253,0.74897,0.51588,0.59067,0.19104,0.74194,0.89195,0.21211,0.61405,0.44867,no
0.65269,0.18002,0.72257,0.066561,0.2053,0.71486,0.60406,0.64171,0.16039,0.74855,0.89203,0.20806,0.6378,0.45051,no
0.6141,0.18937,0.72158,0.066293,0.16391,0.68366,0.50557,0.59159,0.13849,0.72844,0.89179,0.18021,0.53675,0.51794,no
0.63268,0.15705,0.71456,0.066565,0.17574,0.67577,0.57332,0.57737,0.14341,0.73978,0.89193,0.16575,0.58488,0.47514,no
0.60941,0.15186,0.71988,0.066557,0.1304,0.50979,0.61744,0.61164,0.13063,0.73919,0.892,0.17164,0.52363,0.48994,no
0.62519,0.18971,0.7277,0.066561,0.16328,0.59649,0.59846,0.58288,0.13562,0.73784,0.89164,0.16052,0.64709,0.54285,no
0.61754,0.17507,0.72751,0.066559,0.19101,0.71816,0.60782,0.61225,0.16174,0.74714,0.89198,0.19664,0.59866,0.44882,no
0.63203,0.20452,0.71685,0.066561,0.17621,0.70719,0.61735,0.64686,0.117,0.73858,0.89196,0.17621,0.70464,0.55441,no
0.60085,0.18447,0.72422,0.60025,0.19949,0.70403,0.5459,0.6261,0.12903,0.74792,0.89194,0.16369,0.50931,0.4267,no
0.59229,0.15716,0.70447,0.066564,0.17768,0.6746,0.61187,0.60149,0.090208,0.72902,0.89169,0.13747,0.59202,0.53565,no
0.60768,0.10621,0.71848,0.065671,0.12569,0.60556,0.60587,0.63818,0.14859,0.73991,0.89193,0.20545,0.67582,0.46783,no
0.61476,0.13134,0.7207,0.066397,0.14327,0.62736,0.60469,0.59647,0.17413,0.74296,0.89191,0.19444,0.56452,0.45947,no
0.62346,0.15411,0.71865,0.066596,0.18282,0.7207,0.67194,0.57698,0.21052,0.74415,0.89197,0.17277,0.50862,0.42111,no
0.64838,0.12726,0.72671,0.066561,0.14553,0.67302,0.54833,0.63317,0.19674,0.75458,0.89203,0.16165,0.52623,0.40801,no
0.62279,0.16087,0.72047,0.066566,0.18357,0.63307,0.59373,0.60799,0.16101,0.75146,0.89181,0.1863,0.67525,0.41276,no
0.63379,0.13371,0.7222,0.06656,0.17008,0.74203,0.54871,0.59263,0.18999,0.75081,0.89198,0.18875,0.59719,0.39678,no
0.61776,0.20388,0.72727,0.066534,0.20995,0.71932,0.58091,0.57321,0.15617,0.74198,0.89201,0.16286,0.61459,0.48786,no
0.63414,0.17636,0.72893,0.066561,0.19677,0.60684,0.52616,0.56768,0.14006,0.73423,0.89201,0.13361,0.52207,0.58323,no
0.61794,0.1468,0.72381,0.066537,0.14428,0.64463,0.57701,0.61999,0.19273,0.74937,0.89203,0.21672,0.73316,0.49941,no
0.6256,0.15413,0.71397,0.066333,0.18155,0.70441,0.5966,0.62807,0.185,0.74569,0.89197,0.23813,0.76157,0.51108,no
0.62098,0.083161,0.72535,0.026905,0.10297,0.66954,0.59574,0.54115,0.12439,0.73146,0.89124,0.091046,0.50521,0.68924,no
0.62343,0.21302,0.72052,0.066561,0.20845,0.7461,0.53693,0.60062,0.2076,0.75126,0.89202,0.18741,0.52974,0.41603,no
0.61238,0.11044,0.70332,0.06656,0.15208,0.78241,0.70666,0.64169,0.16359,0.75382,0.89203,0.17908,0.67273,0.52473,no
0.58992,0.24203,0.71325,0.066507,0.17827,0.6332,0.57261,0.63403,0.14727,0.73997,0.89187,0.1942,0.55473,0.42977,no
0.5898,0.15816,0.71571,0.06663,0.16506,0.61563,0.62404,0.60582,0.1649,0.74987,0.89199,0.19311,0.68422,0.45501,no
0.58657,0.17566,0.71951,0.066561,0.16427,0.61797,0.60574,0.59506,0.19576,0.75034,0.89197,0.19422,0.62286,0.38646,no
0.60618,0.15963,0.71628,0.066524,0.18535,0.69981,0.59758,0.65941,0.18504,0.75362,0.892,0.17967,0.7168,0.57098,no
0.61744,0.16514,0.72086,0.066466,0.16814,0.62892,0.55331,0.5844,0.1905,0.74783,0.89161,0.17361,0.54805,0.40201,no
0.61497,0.14643,0.72165,0.066483,0.11786,0.52202,0.56684,0.61179,0.21131,0.75178,0.89203,0.17645,0.54718,0.42219,no
0.62112,0.16109,0.7139,0.14014,0.16456,0.57393,0.57145,0.60117,0.14001,0.74119,0.89189,0.19242,0.67406,0.42802,no
0.56857,0.16182,0.83836,0.066708,0.1371,0.64986,0.54708,0.6514,0.13962,0.73926,0.89178,0.19299,0.69178,0.51342,no
0.57794,0.15985,0.79843,0.065723,0.17185,0.66191,0.65848,0.61584,0.19556,0.74868,0.89144,0.20035,0.68491,0.47232,no
0.62721,0.15852,0.70031,0.066563,0.16818,0.61295,0.5786,0.59642,0.21728,0.75017,0.89203,0.2004,0.54575,0.3605,no
0.57032,0.16026,0.72293,0.067824,0.13016,0.4838,0.56521,0.6503,0.15144,0.74011,0.89193,0.21724,0.68906,0.44648,no
0.089281,0.17961,0.67126,0.06682,0.058276,0.18681,0.69068,0.069714,0.19731,0.68783,0.89203,0.055502,0.26039,0.6422,no
0.2036,0.16807,0.67949,0.06656,0.035824,0.090658,0.66761,0.0051897,0.26035,0.61989,0.89205,0.029364,0.29891,0.86597,no
0.53075,0.080985,0.71488,0.055331,0.027844,0.1108,0.77693,0.15307,0.20726,0.7443,0.87692,0.050831,0.29891,0.77657,no
0.48235,0.095079,0.71494,0.066344,0.023749,0.086467,0.78392,0.49469,0.12895,0.77881,0.87022,0.05445,0.25225,0.63162,no
0.083913,0.21265,0.67399,0.065903,0.076895,0.14564,0.75378,0.16681,0.18548,0.9669,0.8926,0.03824,0.12215,0.49902,no
0.017919,0.2332,0.65882,0.067995,0.069118,0.10326,0.5864,0.25715,0.20445,0.70502,0.88833,0.049335,0.18477,0.49902,no
0.033335,0.18623,0.67082,0.063963,0.071234,0.15386,0.61061,0.066342,0.24159,0.70147,0.89059,0.053209,0.19752,0.62092,no
0.32565,0.12734,0.71696,0.066561,0.037335,0.13505,0.66727,0.23532,0.16108,0.70733,0.90144,0.041523,0.21559,0.59712,no
0.42989,0.11377,0.71411,0.064837,0.030338,0.091813,0.73889,0.60902,0.13488,0.74685,0.89082,0.050156,0.21559,0.59712,no
0.63521,0.10757,0.71588,0.066647,0.038468,0.12856,0.70374,0.3761,0.092335,0.7839,0.89394,0.027682,0.17937,0.65197,no
0.53072,0.11183,0.72209,0.066693,0.033964,0.15076,0.79601,0.47554,0.10684,0.74831,0.89244,0.035402,0.23304,0.68611,no
0.64207,0.11865,0.74753,0.066561,0.051686,0.19815,0.62915,0.68768,0.12786,0.75596,0.89106,0.050145,0.23304,0.62212,no
0.48961,0.11427,0.74418,0.066566,0.047887,0.17986,0.7281,0.71174,0.11276,0.73985,0.89086,0.047844,0.20466,0.61309,no
0.51568,0.12823,0.71384,0.06749,0.045142,0.20762,0.77297,0.6809,0.10605,0.75807,0.8897,0.041659,0.20352,0.61309,no
0.32404,0.16234,0.7023,0.066543,0.039085,0.089572,0.66757,0.63342,0.11051,0.77324,0.88385,0.044944,0.20352,0.65444,no
0.41131,0.16914,0.71221,0.062002,0.06615,0.2759,0.64787,0.66601,0.11008,0.74871,0.88672,0.045171,0.21196,0.65444,no
0.013629,0.24019,0.65065,0.066856,0.070443,0.26255,0.70943,0.64143,0.11492,0.76346,0.8889,0.041785,0.21196,0.66644,no
0,0.32277,0.62897,0.054011,0.04138,0.074051,0.56082,0.29994,0.10316,0.73105,0.8934,0.026013,0.17259,0.73361,no
0.017126,0.24002,0.65748,0.064677,0.086378,0.16381,0.64449,0.49041,0.11203,0.75693,0.8882,0.033001,0.17259,0.68613,no
0.1123,0.18518,0.68961,0.066531,0.038687,0.12857,0.59396,0.29275,0.1351,0.71574,0.89304,0.033914,0.21139,0.67019,no
0.032309,0.23801,0.65812,0.08238,0.10054,0.25873,0.72929,0.4884,0.15275,0.74951,0.89081,0.045658,0.21139,0.62039,no
0.041498,0.25545,0.68945,0.066579,0.083575,0.17984,0.70627,0.50106,0.13325,0.75248,0.88887,0.040562,0.18712,0.62039,no
0.014452,0.26141,0.61553,0.068287,0.10307,0.25948,0.71398,0.45195,0.1473,0.74719,0.88667,0.042167,0.18712,0.58894,no
0.013576,0.23372,0.66876,0.065537,0.052874,0.088709,0.62681,0.32447,0.19485,0.73254,0.88864,0.048494,0.20709,0.58894,no
0.018522,0.20369,0.66549,0.06652,0.060385,0.21045,0.72367,0.44218,0.17442,0.76098,0.89203,0.052831,0.20709,0.60964,no
0.10019,0.18307,0.67084,0.074534,0.032599,0.10543,0.69484,0.42811,0.16006,0.76259,0.89243,0.061873,0.21007,0.60964,no
0.072371,0.22587,0.6728,0.065253,0.10109,0.21602,0.65971,0.0069465,0.30397,0.64998,0.8882,0.049799,0.26324,0.73581,no
0.024672,0.31029,0.61384,0.067169,0.12555,0.19509,0.64889,0.0082389,0.27391,0.65954,0.88376,0.046354,0.26324,0.74955,no
0.42956,0.11374,0.70644,0.066086,0.039108,0.11145,0.69519,0.19059,0.18658,0.74424,0.88381,0.043824,0.22651,0.70019,no
0.60328,0.12172,0.74353,0.066453,0.040606,0.13967,0.67878,0.55772,0.12568,0.7907,0.86939,0.052321,0.22651,0.58925,no
0.29765,0.16072,0.69395,0.066832,0.056407,0.11898,0.60826,0.030547,0.1803,0.73935,0.89203,0.033842,0.12469,0.50548,no
0.031488,0.2515,0.6868,0.066688,0.096585,0.19061,0.66192,0.0075654,0.31437,0.67675,0.88025,0.056398,0.12469,0.41428,no
0.016855,0.31375,0.64405,0.063763,0.13579,0.26005,0.61572,0.0047442,0.35851,0.64528,0.89151,0.051129,0.13201,0.41428,no
0.012564,0.25279,0.68966,0.066547,0.055358,0.14042,0.50465,0.0072944,0.2899,0.66129,0.89008,0.043183,0.1532,0.52571,no
0.018502,0.23532,0.68338,0.065411,0.096923,0.26757,0.67233,0.0077404,0.28186,0.66604,0.88451,0.044163,0.1532,0.52646,no
0.03587,0.25701,0.67092,0.062568,0.10149,0.22324,0.54481,0.0056644,0.32529,0.65149,0.89175,0.047604,0.14045,0.43953,no
0.41521,0.15303,0.72044,0.065827,0.044607,0.14242,0.63103,0.21992,0.2016,0.75969,0.89342,0.074345,0.21994,0.43953,no
0.11725,0.23863,0.70381,0.065808,0.096904,0.23311,0.62006,0.35612,0.15937,0.75396,0.89198,0.054039,0.27036,0.67017,no
0.20754,0.16412,0.694,0.06658,0.052762,0.11292,0.64655,0.11077,0.19952,0.69225,0.88114,0.044345,0.27036,0.7506,no
0.50893,0.13034,0.72466,0.066561,0.038412,0.12564,0.7351,0.48997,0.11749,0.76141,0.88403,0.042049,0.2407,0.7506,no
0.52664,0.1141,0.73671,0.066561,0.037112,0.16221,0.68505,0.67656,0.10357,0.76642,0.88922,0.045961,0.25406,0.69549,no
0.065169,0.23203,0.67502,0.066561,0.093639,0.3172,0.69054,0.67612,0.109,0.77349,0.88562,0.045196,0.25406,0.63357,no
0.3002,0.20907,0.69802,0.066528,0.043214,0.21076,0.61347,0.64093,0.11246,0.74972,0.88312,0.042647,0.16708,0.59814,no
0.55257,0.12151,0.72359,0.066353,0.042651,0.23195,0.77498,0.44121,0.16029,0.76455,0.87892,0.05207,0.18783,0.59814,no
0.68033,0.11916,0.74364,0.066423,0.042277,0.19258,0.65184,0.23847,0.2316,0.69239,0.89002,0.055668,0.18783,0.49866,no
0.58183,0.12028,0.73519,0.066535,0.040841,0.13656,0.70062,0.28287,0.19732,0.74073,0.89185,0.047075,0.18322,0.49866,no
0.29669,0.16831,0.68669,0.066618,0.068052,0.21558,0.60958,0.4158,0.15273,0.75511,0.88929,0.039388,0.16964,0.58235,no
0.33085,0.16655,0.71546,0.066527,0.041706,0.14019,0.65386,0.41402,0.17827,0.74133,0.88496,0.050086,0.1976,0.58696,no
0.53079,0.12056,0.71473,0.06795,0.041165,0.15141,0.65493,0.41797,0.1861,0.75,0.89043,0.050371,0.1976,0.5734,no
0.016648,0.29002,0.63005,0.067452,0.13332,0.23196,0.65043,0.61065,0.13399,0.77016,0.89145,0.04758,0.19794,0.5734,no
0.55742,0.11804,0.69727,0.066562,0.093687,0.55098,0.75267,0.59615,0.12748,0.71879,0.89032,0.13267,0.61447,0.76998,no
0.45768,0.16589,0.79671,0.065156,0.08892,0.41862,0.73563,0.62244,0.14768,0.73551,0.89151,0.13165,0.49295,0.58778,no
0.58621,0.20541,0.77766,0.06611,0.12262,0.55322,0.68956,0.54689,0.098345,0.72799,0.88762,0.10101,0.53994,0.73651,no
0.58767,0.17029,0.71642,0.066476,0.12766,0.56934,0.70201,0.52262,0.19281,0.74279,0.88579,0.12937,0.4585,0.56999,no
0.51526,0.22762,0.71208,0.065964,0.13097,0.58609,0.71309,0.36494,0.19363,0.72136,0.89204,0.11646,0.47306,0.74425,no
0.57099,0.12617,0.71226,0.066561,0.086353,0.52512,0.7588,0.60618,0.13506,0.74244,0.89461,0.13026,0.49978,0.60918,no
0.4442,0.1866,0.69288,0.063523,0.10476,0.53489,0.81586,0.5212,0.18641,0.73225,0.89201,0.10572,0.41426,0.63419,no
0.55901,0.25887,0.69626,0.065156,0.13691,0.46425,0.70175,0.57972,0.21047,0.74008,0.89141,0.14116,0.61642,0.6088,no
0.69424,0.14095,0.72177,0.066521,0.11838,0.5415,0.75919,0.53887,0.21453,0.73649,0.89176,0.13699,0.60315,0.66087,no
0.67789,0.16259,0.72826,0.066611,0.13092,0.57171,0.67314,0.51629,0.24128,0.738,0.89203,0.13191,0.44968,0.52192,no
0.59619,0.17693,0.71378,0.066337,0.1272,0.61462,0.74159,0.6145,0.15681,0.73886,0.89193,0.1231,0.58464,0.6786,no
0.58505,0.20367,0.71952,0.066562,0.13101,0.51424,0.66244,0.63929,0.14322,0.73642,0.89195,0.12785,0.58103,0.66184,no
0.62514,0.14519,0.72707,0.06553,0.10418,0.6014,0.79444,0.65202,0.1261,0.72214,0.89141,0.12459,0.57128,0.67749,no
0.53489,0.19589,0.70874,0.065955,0.13943,0.59337,0.69289,0.66438,0.11858,0.73276,0.89171,0.12974,0.63038,0.76208,no
0.41017,0.2616,0.69389,0.068992,0.15396,0.58029,0.66825,0.61005,0.12135,0.72474,0.8902,0.12298,0.59928,0.72092,no
0.51921,0.14881,0.70442,0.066559,0.12498,0.55801,0.79696,0.44252,0.2478,0.74171,0.88872,0.11572,0.38966,0.53491,no
0.58657,0.15385,0.703,0.066134,0.11089,0.62949,0.80473,0.34947,0.30602,0.71895,0.89196,0.12676,0.39742,0.54648,no
0.53091,0.29745,0.71922,0.16571,0.16795,0.63429,0.68902,0.58269,0.18126,0.73581,0.89293,0.15908,0.642,0.64881,no
0.5833,0.24628,0.7391,0.066505,0.19271,0.62494,0.64969,0.50841,0.21511,0.73424,0.88794,0.13683,0.59542,0.64421,no
0.59112,0.23347,0.72402,0.065,0.15155,0.5446,0.70362,0.50182,0.25301,0.73005,0.89202,0.16088,0.6449,0.6766,no
0.58686,0.15293,0.72766,0.066603,0.1272,0.67905,0.77633,0.54093,0.12305,0.72329,0.89238,0.1173,0.56174,0.73981,no
0.62471,0.16749,0.72446,0.066563,0.11974,0.47802,0.57983,0.53019,0.11388,0.74523,0.88295,0.078632,0.50109,0.80725,no
0.66702,0.22389,0.73231,0.066366,0.13466,0.51952,0.67815,0.61107,0.16066,0.75039,0.89171,0.11518,0.43028,0.59418,no
0.57254,0.14892,0.71186,0.06672,0.09514,0.52254,0.75558,0.61808,0.15976,0.7469,0.8911,0.12151,0.59206,0.70744,no
0.65867,0.16855,0.79544,0.067157,0.1018,0.52373,0.60731,0.62582,0.14518,0.73805,0.89129,0.12251,0.60053,0.74125,no
0.59416,0.20019,0.77687,0.066542,0.12882,0.54491,0.60198,0.55041,0.17486,0.7366,0.89202,0.10099,0.49543,0.65372,no
0.66104,0.15778,0.73396,0.066377,0.11099,0.59429,0.6449,0.6367,0.14261,0.7474,0.892,0.11774,0.58764,0.73523,no
0.62291,0.1923,0.71741,0.064873,0.15383,0.62405,0.64372,0.17169,0.20963,0.68115,0.9016,0.10158,0.36922,0.81656,no
0.6128,0.17037,0.72844,0.066566,0.11647,0.5398,0.58103,0.52932,0.17512,0.75839,0.88607,0.10951,0.53932,0.73354,no
0.62591,0.19745,0.72351,0.066536,0.14141,0.58054,0.53973,0.056099,0.33605,0.68344,0.89065,0.091938,0.43875,0.64709,no
0.4952,0.19028,0.7194,0.066945,0.13309,0.52544,0.67109,0.28795,0.3341,0.70698,0.8921,0.13725,0.49996,0.53464,no
0.67185,0.16363,0.72752,0.066797,0.13681,0.61085,0.69195,0.53612,0.19551,0.74052,0.89208,0.12017,0.49188,0.61458,no
0.70234,0.11673,0.72944,0.067992,0.1088,0.60081,0.70438,0.65039,0.099036,0.74521,0.8913,0.087129,0.52032,0.76183,no
0.59653,0.23516,0.71526,0.2363,0.17835,0.62316,0.56774,0.63897,0.14691,0.75625,0.89187,0.11906,0.43979,0.61756,no
0.67328,0.094683,0.71802,0.06661,0.11402,0.67101,0.87206,0.62831,0.14816,0.75706,0.89163,0.1217,0.44565,0.65165,no
0.68253,0.15349,0.72303,0.066488,0.1033,0.56704,0.76901,0.66523,0.16941,0.75859,0.89198,0.14019,0.56913,0.59459,no
0.69676,0.1839,0.72058,0.069088,0.14226,0.60179,0.64685,0.67669,0.12973,0.74206,0.89203,0.13802,0.51179,0.64429,no
0.65626,0.17457,0.72579,0.066322,0.15196,0.62884,0.72107,0.66412,0.10822,0.73419,0.89134,0.11833,0.60626,0.72756,no
0.65136,0.17794,0.7252,0.067016,0.12127,0.6166,0.68772,0.62808,0.11206,0.75118,0.8919,0.092489,0.51585,0.71754,no
0.70354,0.19473,0.74067,0.065669,0.14707,0.62253,0.69332,0.67802,0.14119,0.74484,0.89201,0.13957,0.63244,0.69148,no
0.71375,0.17205,0.72628,0.066506,0.15034,0.61292,0.68433,0.67613,0.11978,0.73809,0.89158,0.12896,0.48264,0.59658,no
0.6816,0.20857,0.72725,0.066403,0.15684,0.60614,0.67319,0.61028,0.14866,0.75187,0.88838,0.13328,0.56453,0.61445,no
0.70355,0.15235,0.70334,0.066395,0.15283,0.69291,0.68942,0.59115,0.20847,0.7584,0.89203,0.13001,0.423,0.50479,no
0.69331,0.20145,0.7328,0.066513,0.15854,0.62016,0.61582,0.6382,0.13202,0.73466,0.8918,0.13479,0.62081,0.67981,no
0.65254,0.20059,0.73115,0.06751,0.1627,0.62428,0.67248,0.62662,0.18091,0.77538,0.88517,0.14841,0.58051,0.57622,no
0.65933,0.29849,0.72227,0.065935,0.22294,0.71213,0.5613,0.4512,0.23913,0.72818,0.89203,0.11142,0.51508,0.61723,no
0.70156,0.17182,0.72919,0.066873,0.16405,0.66215,0.61112,0.62434,0.1404,0.72677,0.89203,0.15612,0.66962,0.75456,no
0.7035,0.20474,0.73882,0.066507,0.17798,0.70764,0.62161,0.58562,0.070866,0.74943,0.88831,0.080821,0.53047,0.84214,no
0.7211,0.21613,0.72966,0.066433,0.16546,0.59309,0.68489,0.4608,0.2006,0.7402,0.88972,0.1198,0.54471,0.6799,no
0.70505,0.21269,0.73296,0.066561,0.17409,0.55946,0.67968,0.49356,0.2501,0.72924,0.89229,0.14125,0.58264,0.57915,no
0.048271,0.37304,0.33532,0.067521,0.14484,0.048479,0.77453,0.058298,0.34998,0.52738,0.89423,0.16715,0.17556,0.71071,no
0.046274,0.39968,0.22576,0.070124,0.15727,0.050967,0.76675,0.060121,0.38173,0.58763,0.86871,0.20328,0.14134,0.62967,no
0.04973,0.37973,0.32354,0.058812,0.14758,0.04669,0.77405,0.05808,0.35442,0.52697,0.89425,0.17083,0.17904,0.70639,no
0.047175,0.38805,0.18047,0.064281,0.15319,0.054201,0.75937,0.059921,0.38507,0.58917,0.86817,0.20605,0.14342,0.6106,no
0.049412,0.37649,0.32684,0.072831,0.14771,0.05239,0.76772,0.057984,0.34591,0.52232,0.89311,0.16362,0.16773,0.71322,no
0.047687,0.37026,0.18424,0.067601,0.13842,0.053054,0.7662,0.059854,0.38529,0.58836,0.86965,0.20883,0.14467,0.60247,no
0.048474,0.38076,0.27125,0.060997,0.15151,0.049292,0.75199,0.058297,0.3467,0.51206,0.89336,0.16712,0.1812,0.70138,no
0.047951,0.36811,0.22012,0.066187,0.1422,0.044774,0.772,0.059969,0.38147,0.59365,0.87038,0.20717,0.14343,0.61295,no
0.046752,0.38383,0.22657,0.070421,0.14729,0.049248,0.76575,0.058442,0.34823,0.50355,0.89344,0.1683,0.17991,0.70302,no
0.039963,0.42579,0.18107,0.054719,0.17366,0.17143,0.85719,0.0601,0.38115,0.59568,0.86846,0.20617,0.1418,0.61771,no
0.004697,1,0,0.033348,0.64803,0.13291,0.18721,0.058711,0.34378,0.51085,0.89341,0.1648,0.17307,0.70113,no
0.0011507,0.30112,0.45759,0.06746,0.061225,0.26864,0.91137,0.060032,0.37836,0.60476,0.86977,0.20513,0.14153,0.6114,no
0.49023,0.063255,0.70815,0.066561,0.016224,0.12364,0.88053,0.05896,0.35153,0.53881,0.89405,0.17058,0.17493,0.69649,no
0.51166,0.050483,0.70268,0.066708,0.015945,0.15944,0.88476,0.060215,0.37464,0.5985,0.8702,0.19869,0.14205,0.62472,no
0.47796,0.043811,0.70909,0.066561,0.013096,0.14926,0.87106,0.058575,0.34977,0.52024,0.89414,0.16726,0.17602,0.70806,no
0.51021,0.048062,0.71437,0.066611,0.012994,0.10099,0.90014,0.060005,0.38007,0.59266,0.8691,0.20316,0.1418,0.61357,no
0.50364,0.049667,0.711,0.066381,0.012979,0.11561,0.89788,0.058475,0.34921,0.51872,0.89433,0.16675,0.17637,0.70807,no
0.55546,0.042898,0.72697,0.063169,0.012107,0.13693,0.90121,0.059968,0.38085,0.58313,0.86911,0.20318,0.13918,0.61009,no
0.42398,0.049193,0.68776,0.066501,0.011181,0.13323,0.94246,0.058101,0.35397,0.51899,0.89404,0.17032,0.17749,0.70562,no
0.42265,0.064688,0.6962,0.066562,0.016107,0.12866,0.90256,0.059943,0.38273,0.5886,0.86846,0.20314,0.14179,0.64065,no
0.50459,0.053202,0.71084,0.066507,0.013887,0.12048,0.89487,0.057945,0.34686,0.49621,0.89356,0.16584,0.18062,0.71071,no
0.51301,0.048243,0.71194,0.06651,0.014554,0.14559,0.87308,0.059876,0.38322,0.58891,0.86924,0.2066,0.14187,0.60184,no
0.45846,0.05873,0.70033,0.066508,0.012016,0.12833,0.85691,0.05811,0.34611,0.51451,0.89295,0.16455,0.17057,0.7089,no
0.48395,0.049027,0.72611,0.066532,0.013643,0.15516,0.90983,0.059653,0.38406,0.58384,0.87096,0.20909,0.14185,0.59477,no
0.4709,0.064583,0.70177,0.066561,0.01375,0.11302,0.87845,0.058679,0.34181,0.49693,0.89319,0.16462,0.184,0.7029,no
0.4924,0.036805,0.70296,0.066233,0.017428,0.18827,0.93517,0.060257,0.37389,0.60098,0.86991,0.20072,0.14269,0.62494,no
0.29532,0.07512,0.68645,0.065605,0.014535,0.12186,0.85237,0.058829,0.33727,0.52084,0.8937,0.15955,0.17327,0.7019,no
0.53382,0.067048,0.71087,0.066512,0.016065,0.12492,0.88627,0.060192,0.371,0.59625,0.87046,0.19703,0.13656,0.62712,no
0.53253,0.019052,0.72272,0.066837,0.011788,0.1561,0.93183,0.058807,0.34718,0.52707,0.89394,0.16719,0.18243,0.70285,no
0.47246,0.046406,0.70026,0.066498,0.010559,0.13755,0.94715,0.060127,0.37438,0.59175,0.87062,0.19919,0.14078,0.61015,no
0.45722,0.060499,0.70513,0.066516,0.012874,0.12055,0.87502,0.058432,0.3363,0.51987,0.89309,0.15623,0.16354,0.71183,no
0.62208,0.050031,0.71656,0.066428,0.018518,0.17541,0.88007,0.060074,0.37813,0.59983,0.86923,0.20268,0.14083,0.60348,no
0.47835,0.053001,0.70568,0.06656,0.012097,0.13028,0.90148,0.059133,0.34603,0.54364,0.89454,0.16478,0.17347,0.70541,no
0.48353,0.06704,0.71956,0.066549,0.019728,0.11736,0.86411,0.060261,0.36704,0.59139,0.87164,0.19026,0.1381,0.62819,no
0.42579,0.063273,0.70113,0.069247,0.013447,0.13591,0.88374,0.058175,0.34487,0.50663,0.89373,0.163,0.18301,0.71305,no
0.51293,0.026979,0.72663,0.066563,0.014034,0.14188,0.92625,0.060084,0.3797,0.58971,0.86993,0.20203,0.14262,0.6019,no
0.35982,0.078897,0.6892,0.066428,0.013359,0.10373,0.88214,0.058282,0.34683,0.50428,0.89391,0.16466,0.1825,0.71323,no
0.51246,0.041669,0.71035,0.066573,0.015136,0.15396,0.86647,0.060489,0.33164,0.65573,0.86687,0.15549,0.14177,0.6633,no
0.55982,0.059364,0.7142,0.06655,0.01613,0.15162,0.87717,0.057019,0.30788,0.42088,0.89291,0.1294,0.17382,0.77493,no
0.5918,0.03824,0.72479,0.066298,0.016484,0.14156,0.91891,0.059748,0.37618,0.58629,0.86968,0.20085,0.13643,0.60665,no
0.20426,0.09649,0.68293,0.065893,0.026878,0.12188,0.85009,0.058814,0.34259,0.49737,0.89343,0.16434,0.17975,0.70218,no
0.47244,0.043299,0.71037,0.066579,0.0094162,0.12095,0.89822,0.059871,0.37676,0.59851,0.86925,0.20319,0.13909,0.62098,no
0.54732,0.038363,0.71178,0.064541,0.012548,0.11428,0.91002,0.059162,0.33489,0.50026,0.89322,0.16,0.17836,0.69572,no
0.52133,0.032997,0.72383,0.066729,0.0066273,0.069869,0.9224,0.059458,0.36715,0.59996,0.87312,0.19636,0.13562,0.58707,no
0.47457,0.039046,0.70441,0.066559,0.0093806,0.12575,0.91274,0.058872,0.34798,0.5197,0.89367,0.16825,0.17973,0.69769,no
0.49819,0.042401,0.71339,0.066585,0.013117,0.14563,0.89685,0.059961,0.37227,0.59163,0.87035,0.19729,0.13926,0.61224,no
0.47148,0.050517,0.70142,0.066221,0.015925,0.12114,0.91793,0.058384,0.33825,0.52492,0.89331,0.15804,0.17034,0.71063,no
0.42403,0.073865,0.69504,0.067076,0.01416,0.11786,0.91767,0.05996,0.37566,0.59227,0.8703,0.20032,0.14049,0.60795,no
0.52389,0.035675,0.70728,0.099066,0.010101,0.13657,0.94063,0.058574,0.34756,0.52164,0.89418,0.16591,0.17583,0.70817,no
0.45489,0.050621,0.69745,0.079256,0.011228,0.11922,0.91386,0.060139,0.3742,0.59494,0.86994,0.19751,0.14162,0.62388,no
0.048142,0.36015,0.32668,0.071187,0.13299,0.022194,0.81664,0.058604,0.32287,0.53223,0.89347,0.14499,0.15441,0.72202,no
0.04775,0.35127,0.22807,0.066969,0.12584,0.023173,0.81607,0.060268,0.35107,0.61076,0.87369,0.17517,0.1367,0.65841,no
0.047062,0.36141,0.32902,0.06277,0.13502,0.027859,0.81016,0.058608,0.32345,0.53851,0.89369,0.14447,0.15614,0.72457,no
0.049386,0.34094,0.36676,0.073405,0.12437,0.018241,0.79007,0.060237,0.3516,0.61246,0.87303,0.17483,0.13516,0.67003,no
0.046613,0.36443,0.18208,0.068766,0.13207,0.018637,0.79158,0.058305,0.31856,0.51034,0.89337,0.14057,0.15627,0.72958,no
0.049779,0.35115,0.30731,0.059953,0.12881,0.019266,0.78526,0.060591,0.34945,0.61987,0.87144,0.17247,0.13588,0.66206,no
0.047446,0.35196,0.21552,0.065248,0.12922,0.040479,0.81318,0.057939,0.30998,0.43107,0.89293,0.13445,0.15711,0.73711,no
0.048786,0.35873,0.27597,0.072307,0.13293,0.044227,0.80391,0.060053,0.35661,0.614,0.87233,0.18114,0.1336,0.65394,no
0.043517,0.39937,0.13125,0.067745,0.15783,0.014504,0.71132,0.058863,0.32141,0.52184,0.8935,0.14489,0.1459,0.71869,no
0.016824,0.53808,0.29647,0.05316,0.34826,0.39891,0.76222,0.060082,0.35136,0.61219,0.87472,0.17683,0.1328,0.65473,no
0.017674,0.26798,0.6675,0.066567,0.081557,0.2737,0.57419,0.058877,0.32242,0.52009,0.89343,0.14527,0.15022,0.72051,no
0.70652,0.082399,0.73556,0.066554,0.045017,0.30401,0.72667,0.059907,0.35141,0.60802,0.87429,0.17627,0.13442,0.67543,no
0.67583,0.063458,0.7393,0.06653,0.041009,0.2861,0.76249,0.059097,0.31994,0.53208,0.89335,0.14366,0.1537,0.71854,no
0.74187,0.065327,0.73155,0.066539,0.03621,0.26296,0.73253,0.060196,0.3531,0.62264,0.87326,0.17844,0.1343,0.64777,no
0.72467,0.034278,0.73807,0.066558,0.026991,0.28627,0.79,0.058726,0.32565,0.52455,0.89381,0.14733,0.15464,0.71869,no
0.72117,0.061997,0.73727,0.066407,0.035292,0.27098,0.7545,0.060451,0.35189,0.61572,0.87343,0.17509,0.13569,0.66097,no
0.79885,0.064258,0.73125,0.066561,0.038568,0.29489,0.7477,0.058692,0.31919,0.52908,0.8935,0.14141,0.15465,0.7293,no
0.68701,0.052476,0.7272,0.066561,0.025452,0.25973,0.7822,0.060182,0.35139,0.61153,0.8727,0.17565,0.13432,0.65818,no
0.72586,0.069895,0.73641,0.066553,0.03809,0.26332,0.81147,0.058497,0.31303,0.46674,0.89287,0.1376,0.16117,0.72663,no
0.67976,0.06563,0.72789,0.066572,0.027669,0.26123,0.76116,0.060391,0.34918,0.61406,0.87488,0.17425,0.13601,0.65363,no
0.72033,0.074275,0.72468,0.066567,0.03555,0.25489,0.74921,0.058621,0.31553,0.51257,0.89325,0.13949,0.15284,0.72665,no
0.74819,0.079261,0.74248,0.066507,0.038716,0.26738,0.78154,0.060434,0.35203,0.61608,0.87261,0.17687,0.13583,0.65646,no
0.74997,0.084147,0.74146,0.066523,0.041474,0.27421,0.75973,0.059409,0.31672,0.53519,0.89374,0.14054,0.15102,0.72257,no
0.75014,0.065296,0.74021,0.066465,0.038375,0.28313,0.7564,0.060336,0.34063,0.59026,0.87352,0.16894,0.13108,0.62681,no
0.71801,0.073249,0.74185,0.067029,0.044648,0.32721,0.75677,0.05955,0.31491,0.53936,0.89373,0.13817,0.15204,0.72175,no
0.7122,0.061614,0.72957,0.066494,0.031991,0.28573,0.79655,0.060086,0.34224,0.58807,0.87415,0.16863,0.12921,0.64469,no
0.71594,0.082398,0.74134,0.066412,0.041797,0.27232,0.76828,0.059152,0.31985,0.52964,0.89356,0.14335,0.15026,0.72079,no
0.69225,0.070338,0.73332,0.066476,0.043321,0.3086,0.72484,0.060209,0.35188,0.61385,0.87319,0.17726,0.13317,0.65927,no
0.77977,0.089632,0.74857,0.066559,0.04581,0.29122,0.76583,0.059092,0.31888,0.51456,0.89369,0.14284,0.15318,0.71869,no
0.74623,0.070532,0.73218,0.066561,0.04138,0.30136,0.75832,0.060184,0.34319,0.60218,0.87216,0.17132,0.13103,0.62838,no
0.75832,0.070091,0.73505,0.066529,0.040723,0.27317,0.76031,0.059045,0.32163,0.53493,0.89374,0.14392,0.15207,0.7208,no
0.7639,0.073898,0.73645,0.066555,0.042317,0.32366,0.72939,0.060194,0.34862,0.60839,0.87314,0.17374,0.13408,0.64633,no
0.71364,0.084308,0.72703,0.066561,0.049569,0.3195,0.8309,0.058755,0.32222,0.52188,0.8936,0.14402,0.14964,0.72455,no
0.76439,0.073162,0.73525,0.066399,0.044878,0.30992,0.76288,0.060196,0.35373,0.60865,0.87154,0.17739,0.13376,0.65938,no
0.77391,0.064536,0.72873,0.066373,0.038961,0.26254,0.72482,0.058874,0.32226,0.52705,0.89372,0.14416,0.14875,0.72093,no
0.76192,0.083293,0.73433,0.066323,0.047242,0.3065,0.81558,0.060314,0.34744,0.60765,0.87273,0.17134,0.1323,0.66648,no
0.65895,0.095328,0.72824,0.066561,0.048695,0.24159,0.7382,0.058809,0.31611,0.52092,0.89363,0.13929,0.15373,0.72798,no
0.63582,0.077354,0.73057,0.06717,0.041731,0.32628,0.75237,0.0603,0.34712,0.59566,0.87285,0.17442,0.13352,0.62179,no
0.65293,0.095021,0.73495,0.066439,0.055664,0.28926,0.68603,0.059346,0.31657,0.53726,0.89361,0.14084,0.14937,0.71656,no
0.7386,0.07547,0.73557,0.066529,0.045042,0.29457,0.7517,0.060118,0.34365,0.60932,0.87234,0.16986,0.13106,0.65093,no
0.74878,0.07122,0.7412,0.066536,0.035638,0.26588,0.73324,0.058926,0.31949,0.52553,0.89387,0.14224,0.15043,0.72123,no
0.76538,0.057164,0.7253,0.067066,0.039518,0.27154,0.74742,0.06017,0.35305,0.61852,0.87059,0.17711,0.1305,0.65961,no
0.70814,0.064985,0.74296,0.066498,0.029502,0.27452,0.76921,0.058858,0.3155,0.52024,0.89353,0.14119,0.17211,0.72092,no
0.76102,0.059862,0.72918,0.066558,0.032179,0.27229,0.77046,0.060186,0.3536,0.5975,0.87303,0.178,0.13249,0.66459,no
0.68704,0.085045,0.73,0.066308,0.047819,0.31276,0.79979,0.058978,0.32173,0.5221,0.89347,0.14439,0.14704,0.7187,no
0.64519,0.11532,0.72225,0.066561,0.066078,0.35106,0.73565,0.060078,0.3508,0.60466,0.87376,0.17568,0.13197,0.6562,no
0.66285,0.084086,0.71301,0.066561,0.05493,0.32794,0.7901,0.058472,0.32173,0.51145,0.89366,0.14479,0.1602,0.7202,no
0.62768,0.11546,0.72823,0.065591,0.049064,0.29332,0.79467,0.060144,0.35672,0.60981,0.8721,0.18036,0.13383,0.66762,no
0.69748,0.094039,0.72989,0.066649,0.05317,0.28532,0.77013,0.058878,0.3149,0.50135,0.89317,0.14127,0.17536,0.72242,no
0.70826,0.10542,0.73934,0.066542,0.060891,0.30905,0.75787,0.060154,0.35374,0.61503,0.87281,0.17828,0.13462,0.66259,no
0.047184,0.5707,0.12582,0.060846,0.30019,0.11873,0.62773,0.061397,0.47458,0.53815,0.89738,0.30247,0.22164,0.59484,no
0.050256,0.57352,0.29224,0.082059,0.3007,0.11974,0.61308,0.060562,0.5142,0.60868,0.86202,0.36282,0.17979,0.4574,no
0.047103,0.59002,0.14025,0.069805,0.30045,0.11871,0.60481,0.060502,0.49831,0.53499,0.89699,0.32323,0.2308,0.59758,no
0.049943,0.57764,0.24025,0.054991,0.30468,0.12071,0.61073,0.061598,0.53822,0.62282,0.85172,0.38686,0.19436,0.46625,no
0.048109,0.5595,0.13064,0.064594,0.29098,0.11038,0.60535,0.060204,0.49342,0.50196,0.89637,0.31651,0.23991,0.61983,no
0.048012,0.58533,0.18402,0.07522,0.30424,0.11678,0.61233,0.061295,0.5522,0.633,0.85304,0.40194,0.19816,0.5034,no
0.048329,0.5665,0.1811,0.066593,0.28549,0.1191,0.62206,0.060459,0.49272,0.54089,0.89626,0.31701,0.24079,0.60816,no
0.047245,0.57795,0.18367,0.059012,0.29585,0.15431,0.69,0.061253,0.54892,0.63159,0.85223,0.39924,0.19477,0.50085,no
0.028485,0.5811,0.61379,0.066934,0.51307,0.74737,0,0.060421,0.50272,0.54241,0.89586,0.32434,0.21344,0.60946,no
0.43649,0.34201,0.73157,0.066464,0.24386,0.7183,0.34075,0.061057,0.54416,0.62914,0.85425,0.3961,0.1941,0.44211,no
0.37945,0.36315,0.69539,0.065526,0.23234,0.61789,0.33369,0.060356,0.49542,0.49556,0.89606,0.31865,0.22883,0.60578,no
0.50496,0.36453,0.70938,0.10341,0.23266,0.69638,0.27139,0.061167,0.54715,0.62888,0.84992,0.40064,0.19391,0.46806,no
0.25657,0.36389,0.69698,0.13601,0.21906,0.72121,0.33898,0.060641,0.49466,0.53335,0.8966,0.32072,0.2399,0.60274,no
0.44179,0.36142,0.69726,0.066083,0.25218,0.70269,0.27114,0.060958,0.53963,0.62585,0.85528,0.39312,0.18986,0.43348,no
0.45122,0.37524,0.71922,0.095998,0.22866,0.71664,0.30877,0.060503,0.49816,0.50678,0.89676,0.32262,0.22699,0.60103,no
0.25085,0.36764,0.6878,0.066557,0.2175,0.65467,0.28571,0.060453,0.54319,0.603,0.85688,0.39514,0.18731,0.44932,no
0.39199,0.40162,0.70122,0.066274,0.25556,0.70568,0.20711,0.060696,0.49985,0.54141,0.89756,0.3257,0.23935,0.59894,no
0.44173,0.37537,0.71162,0.066301,0.24424,0.64602,0.23112,0.060978,0.54087,0.6082,0.85596,0.39278,0.18988,0.44309,no
0.42451,0.34897,0.72529,0.079999,0.2169,0.74251,0.4634,0.060414,0.49865,0.54126,0.89652,0.32444,0.24068,0.60297,no
0.25568,0.37473,0.72341,0.06584,0.23235,0.7019,0.25638,0.061136,0.5416,0.6104,0.85682,0.39256,0.19451,0.4441,no
0.40361,0.38369,0.69993,0.065912,0.25334,0.70201,0.27997,0.060424,0.49459,0.54235,0.89644,0.31892,0.24164,0.60543,no
0.43897,0.38214,0.70506,0.066046,0.24222,0.60559,0.27577,0.061074,0.54311,0.61032,0.85381,0.39578,0.19256,0.43967,no
0.41987,0.3774,0.70643,0.066213,0.2345,0.70267,0.28634,0.060295,0.49688,0.51481,0.89606,0.31914,0.22251,0.60595,no
0.44756,0.37113,0.70376,0.066062,0.22496,0.54574,0.251,0.060733,0.54329,0.61039,0.8566,0.39491,0.19169,0.44815,no
0.48147,0.36036,0.7076,0.065665,0.22902,0.67694,0.27333,0.060478,0.497,0.53607,0.8964,0.32267,0.23953,0.60273,no
0.44855,0.36444,0.70494,0.06612,0.22821,0.69177,0.24311,0.060784,0.54314,0.62315,0.85554,0.39498,0.19174,0.45024,no
0.49116,0.36877,0.72757,0.066134,0.232,0.67786,0.27955,0.060419,0.49645,0.52065,0.89638,0.32031,0.22822,0.60148,no
0.38927,0.39442,0.70116,0.075107,0.24011,0.64882,0.31632,0.060901,0.53929,0.5989,0.86031,0.39208,0.1896,0.43405,no
0.28741,0.3639,0.70684,0.1127,0.18866,0.67281,0.28639,0.060554,0.48597,0.52247,0.89641,0.31152,0.23128,0.60608,no
0.43181,0.36448,0.70338,0.066221,0.23623,0.67552,0.33991,0.060772,0.53687,0.61453,0.85513,0.3871,0.18901,0.45476,no
0.24935,0.30802,0.69437,0.070937,0.1711,0.6415,0.30548,0.060396,0.49212,0.50784,0.89623,0.31813,0.23268,0.60534,no
0.42662,0.36829,0.7021,0.06599,0.22527,0.64723,0.33624,0.06046,0.54281,0.60925,0.85611,0.39457,0.18973,0.46081,no
0.48673,0.35742,0.71831,0.066125,0.20889,0.62468,0.32648,0.060338,0.49695,0.51303,0.89674,0.32222,0.22878,0.60158,no
0.24624,0.36252,0.69241,0.065962,0.20722,0.6425,0.27443,0.061064,0.54587,0.62579,0.85088,0.3991,0.19101,0.46536,no
0.44914,0.36636,0.70282,0.065727,0.2357,0.70695,0.35964,0.060539,0.49574,0.54157,0.897,0.32141,0.23823,0.60048,no
0.44633,0.38281,0.71034,0.070076,0.21784,0.70843,0.26226,0.061008,0.53075,0.60728,0.85987,0.3807,0.18982,0.44133,no
0.25763,0.34578,0.69938,0.066348,0.20226,0.53176,0.25374,0.059788,0.47872,0.54126,0.89585,0.29851,0.2164,0.61042,no
0.47274,0.37932,0.70994,0.065845,0.23425,0.68866,0.26719,0.060713,0.54097,0.60236,0.85625,0.39115,0.18704,0.4529,no
0.47876,0.35533,0.70834,0.065811,0.2246,0.70565,0.24205,0.060405,0.49528,0.53064,0.89638,0.32097,0.24024,0.60679,no
0.43991,0.36837,0.70844,0.065926,0.22426,0.63118,0.27668,0.061262,0.54432,0.62198,0.85242,0.39532,0.19479,0.47623,no
0.50567,0.34464,0.70114,0.084889,0.21716,0.69819,0.37211,0.060392,0.49611,0.54303,0.89734,0.31982,0.23885,0.61033,no
0.25308,0.34298,0.70664,0.066362,0.19817,0.6617,0.30089,0.061155,0.53788,0.60539,0.85706,0.38655,0.19183,0.45149,no
0.43938,0.37341,0.70241,0.065813,0.23875,0.67556,0.34684,0.060178,0.50618,0.54531,0.89635,0.3258,0.2157,0.61242,no
0.49033,0.34195,0.71353,0.065546,0.21807,0.69117,0.33106,0.061289,0.53783,0.59682,0.85829,0.38407,0.19453,0.45202,no
0.24367,0.36119,0.69411,0.065532,0.19645,0.71402,0.3454,0.059487,0.50606,0.54519,0.8974,0.32604,0.2505,0.62266,no
0.54076,0.35532,0.73424,0.066207,0.24647,0.72157,0.37045,0.061253,0.53225,0.64034,0.85437,0.36546,0.20327,0.52623,no
0.30757,0.32886,0.71908,0.066561,0.18929,0.71712,0.40126,0.058408,0.5098,0.50597,0.89737,0.32509,0.25982,0.65045,no
0.42516,0.36129,0.70542,0.065804,0.22572,0.55459,0.21824,0.060985,0.53522,0.5941,0.86252,0.36756,0.21116,0.5269,no
0.42944,0.37887,0.7023,0.066683,0.24376,0.68314,0.38611,0.054758,0.53244,0.48209,0.89752,0.33908,0.27075,0.66342,no
0.4863,0.3443,0.7108,0.066456,0.19806,0.57708,0.3075,0.060431,0.57692,0.65438,0.84407,0.40774,0.23002,0.52238,no
0.049919,0.41422,0.35307,0.072842,0.16908,0.04403,0.77466,0.061052,0.36167,0.58322,0.89582,0.17913,0.16075,0.69049,no
0.047645,0.41232,0.20772,0.068307,0.16391,0.049083,0.78181,0.061638,0.39232,0.62637,0.87115,0.21595,0.14838,0.61785,no
0.049653,0.41039,0.27415,0.060688,0.16768,0.044765,0.76175,0.060281,0.36735,0.5568,0.89509,0.18076,0.16518,0.69842,no
0.048598,0.39801,0.17563,0.065816,0.15746,0.048461,0.7899,0.061675,0.39391,0.61953,0.86956,0.21437,0.15289,0.62728,no
0.047461,0.41801,0.18194,0.070563,0.16625,0.043635,0.75785,0.059566,0.37379,0.54473,0.8956,0.18514,0.17519,0.71061,no
0.049458,0.39707,0.27803,0.052991,0.15697,0.057864,0.76688,0.061869,0.39162,0.63332,0.86792,0.20822,0.16059,0.65942,no
0.047224,0.41004,0.12465,0.063781,0.16806,0.045387,0.74972,0.058824,0.35694,0.5094,0.89429,0.16824,0.17439,0.72897,no
0.049685,0.4013,0.22037,0.073604,0.16383,0.07709,0.751,0.061873,0.40265,0.62546,0.86953,0.22114,0.15928,0.63365,no
0.047222,0.40686,0.13711,0.069242,0.16377,0.068831,0.73589,0.05942,0.35643,0.53843,0.89441,0.17051,0.17323,0.7178,no
0.027127,0.36517,0.42389,0,0.23578,0.29925,0.30435,0.061904,0.40356,0.63267,0.868,0.22428,0.16035,0.61819,no
0.41831,0.064682,0.69523,0.066513,0.048805,0.30506,0.99333,0.060268,0.35027,0.50313,0.89437,0.16898,0.17957,0.7055,no
0.33114,0.10787,0.67507,0.066494,0.038022,0.28462,0.96628,0.061446,0.40259,0.63828,0.86762,0.2261,0.15241,0.62283,no
0.41233,0.10664,0.67235,0.066466,0.0492,0.27605,0.96355,0.060826,0.35774,0.5168,0.89488,0.17571,0.16556,0.69689,no
0.40671,0.15019,0.68033,0.066389,0.051131,0.29334,0.9503,0.061317,0.39428,0.6274,0.87028,0.21908,0.14848,0.61501,no
0.40302,0.082714,0.8186,0.067101,0.041089,0.28057,0.99352,0.060662,0.35333,0.53059,0.8948,0.17365,0.17582,0.69141,no
0.35594,0.14082,0.66347,0.066556,0.052203,0.28307,0.95747,0.061304,0.3926,0.63537,0.87011,0.21728,0.14917,0.62585,no
0.42093,0.11458,0.81319,0.06653,0.045973,0.30234,0.94783,0.060933,0.36397,0.56359,0.89564,0.17956,0.16158,0.69451,no
0.43074,0.12765,0.69139,0.06586,0.054124,0.32164,0.91983,0.061454,0.38209,0.59487,0.87355,0.20525,0.14908,0.59725,no
0.44311,0.12045,0.67535,0.066529,0.053159,0.31512,0.93019,0.059432,0.36607,0.55642,0.89504,0.17808,0.1697,0.70472,no
0.41911,0.11464,0.68785,0.066338,0.045012,0.27366,0.96084,0.061797,0.39493,0.62373,0.86943,0.21249,0.15827,0.64997,no
0.43447,0.14049,0.68665,0.067571,0.056203,0.28433,0.91637,0.058871,0.3598,0.52617,0.89462,0.17176,0.17903,0.71779,no
0.42338,0.11174,0.69813,0.065813,0.045517,0.25645,0.96455,0.061753,0.39937,0.62992,0.86885,0.21789,0.16171,0.62663,no
0.41059,0.10877,0.68167,0.066445,0.040897,0.26136,0.94306,0.059287,0.3682,0.53515,0.89491,0.18042,0.17343,0.71229,no
0.40972,0.10882,0.67933,0.066703,0.042169,0.26335,0.93332,0.061682,0.40392,0.62958,0.86784,0.22309,0.16103,0.6279,no
0.41718,0.10526,0.67175,0.067675,0.044068,0.23573,0.95471,0.059901,0.35348,0.54538,0.89418,0.16898,0.16778,0.70836,no
0.35851,0.14363,0.68324,0.071861,0.055367,0.30777,0.8513,0.061004,0.3962,0.60129,0.87133,0.21991,0.15166,0.59318,no
0.43988,0.11913,0.70309,0.066407,0.051001,0.32099,0.92036,0.060913,0.34848,0.55103,0.89493,0.16741,0.15925,0.70009,no
0.46943,0.097312,0.67465,0.066141,0.048971,0.30911,0.95865,0.061299,0.39122,0.62685,0.87022,0.2164,0.14672,0.60527,no
0.37557,0.11919,0.66585,0.066595,0.042797,0.22244,0.92246,0.060542,0.35153,0.53502,0.89465,0.17198,0.17485,0.6902,no
0.43914,0.11735,0.68405,0.066566,0.044127,0.26671,0.94037,0.061398,0.38769,0.63094,0.86918,0.21306,0.14878,0.61617,no
0.43854,0.10578,0.68417,0.065591,0.045494,0.27161,0.93749,0.060804,0.35573,0.53082,0.89469,0.17261,0.16434,0.70245,no
0.44178,0.11308,0.6779,0.06656,0.052462,0.25186,0.93603,0.061351,0.38753,0.61065,0.8721,0.21315,0.14856,0.59832,no
0.40892,0.11306,0.68378,0.067077,0.041312,0.20567,0.92757,0.060005,0.36822,0.55399,0.8952,0.18135,0.17132,0.69655,no
0.40823,0.12651,0.69841,0.068935,0.055156,0.28427,0.90978,0.061557,0.39064,0.60318,0.87355,0.21111,0.15601,0.62433,no
0.45471,0.12305,0.69191,0.066632,0.050977,0.29341,0.94286,0.058849,0.35459,0.50955,0.89437,0.16902,0.18718,0.71262,no
0.46024,0.12568,0.6893,0.06656,0.060786,0.3031,0.88421,0.061449,0.40194,0.62659,0.86981,0.22122,0.16071,0.6306,no
0.47041,0.11135,0.68594,0.066558,0.046467,0.2763,0.91341,0.059789,0.35269,0.55566,0.89538,0.16907,0.18689,0.71265,no
0.48013,0.095588,0.6753,0.066561,0.047027,0.24794,0.9285,0.062142,0.38704,0.64678,0.87163,0.20835,0.15778,0.60261,no
0.47881,0.11218,0.69049,0.065786,0.048114,0.27336,0.90849,0.059611,0.35446,0.51104,0.89433,0.16891,0.17039,0.71613,no
0.48124,0.10756,0.69347,0.066052,0.053776,0.30954,0.9409,0.061432,0.39761,0.63903,0.86834,0.221,0.15334,0.58521,no
0.46162,0.089049,0.83449,0.066202,0.037879,0.28538,0.9573,0.060435,0.34941,0.48875,0.89425,0.1691,0.1719,0.70302,no
0.48705,0.10939,0.81129,0.066582,0.053591,0.33923,0.95867,0.060834,0.39076,0.62558,0.87113,0.21782,0.14807,0.5847,no
0.47826,0.090282,0.67896,0.065972,0.039693,0.26121,0.93742,0.060825,0.35139,0.52569,0.89475,0.17199,0.16757,0.68662,no
0.45271,0.1148,0.68657,0.066561,0.038486,0.24211,0.91349,0.061072,0.38534,0.63117,0.8695,0.21313,0.14473,0.5953,no
0.52817,0.096311,0.70575,0.13956,0.054041,0.3083,0.94422,0.06091,0.35193,0.53649,0.89528,0.17293,0.17636,0.69047,no
0.51034,0.090181,0.70214,0.066516,0.042094,0.27319,0.93925,0.061102,0.38,0.60597,0.87372,0.20674,0.14472,0.58604,no
0.46501,0.094762,0.70034,0.066443,0.03834,0.32162,0.9128,0.059963,0.36948,0.55356,0.89598,0.18229,0.17756,0.69594,no
0.50434,0.10309,0.68928,0.066561,0.042369,0.26448,0.91598,0.061428,0.38014,0.58982,0.87422,0.19997,0.15194,0.61505,no
0.50271,0.10646,0.70216,0.066561,0.052184,0.30738,0.95327,0.057721,0.37015,0.52514,0.89529,0.18119,0.20266,0.723,no
0.51886,0.082778,0.69694,0.066192,0.045192,0.30666,0.95962,0.061112,0.39671,0.63042,0.87246,0.20955,0.17155,0.66403,no
0.046833,0.3418,0.23169,0.067491,0.11656,0.0029638,0.79157,0.058621,0.3238,0.62511,0.87699,0.15998,0.11745,0.63591,no
0.048735,0.34226,0.32893,0.061901,0.12618,0,0.78279,0.060454,0.30213,0.51553,0.8935,0.13489,0.1396,0.70159,no
0.047862,0.32582,0.18351,0.066029,0.11893,0.0071415,0.77916,0.058881,0.32791,0.57586,0.87998,0.16392,0.12062,0.62909,no
0.045899,0.36174,0.23016,0.069927,0.12861,0.0038999,0.77057,0.060477,0.28879,0.5242,0.89343,0.12493,0.12827,0.70366,no
0.048904,0.34607,0.32227,0.05773,0.12272,0.018922,0.76878,0.058584,0.33078,0.62405,0.8764,0.16637,0.12095,0.62837,no
0.046989,0.35442,0.1317,0.063397,0.13469,0.05659,0.7768,0.060776,0.28864,0.52689,0.8937,0.12725,0.13388,0.69971,no
0.021893,0.59561,0.27688,0.076259,0.60688,0.090663,0.18941,0.058655,0.32067,0.62041,0.8783,0.15915,0.12052,0.64014,no
0.014564,0.47962,0.36074,0.063158,0.38998,0.15561,0.28931,0.060511,0.30143,0.52026,0.89364,0.13515,0.13643,0.69623,no
0.31007,0.02161,0.66279,0.099706,0.0096215,0.13928,1,0.058392,0.33545,0.6207,0.87667,0.17082,0.12057,0.61921,no
0.4876,0.040701,0.69105,0.06656,0.0079299,0.11313,0.99085,0.060544,0.29917,0.52342,0.89393,0.13278,0.13703,0.69484,no
0.27689,0.043566,0.66337,0.066561,0.00077373,0.060882,0.981,0.058843,0.32515,0.58842,0.87745,0.16057,0.1183,0.62735,no
0.45197,0.059855,0.68761,0.066556,0.008051,0.11879,0.97194,0.060664,0.29579,0.52217,0.89344,0.12989,0.13689,0.70494,no
0.29015,0.045864,0.66057,0.066561,0,0.064105,0.98563,0.059358,0.327,0.63303,0.87432,0.16444,0.12481,0.63071,no
0.47041,0.023321,0.67815,0.088839,0.00040957,0.058356,0.98055,0.060446,0.29852,0.5148,0.8935,0.13175,0.14081,0.70487,no
0.13837,0.060353,0.62817,0.066562,0.0042064,0.040523,0.94744,0.058764,0.32646,0.63157,0.87521,0.16137,0.12202,0.65646,no
0.00057282,0.13686,0.55491,0.066975,0.0039241,0.039111,0.91302,0.06037,0.30036,0.51884,0.89351,0.13365,0.1428,0.70076,no
0.42729,0.0323,0.66053,0.065866,0.0042917,0.060693,0.98753,0.059184,0.33441,0.60929,0.87383,0.17094,0.12199,0.61543,no
0.015277,0.092298,0.61098,0.067486,0.019708,0.073929,0.88969,0.060405,0.29842,0.50553,0.89332,0.13283,0.14322,0.70043,no
0.48084,0.010248,0.692,0.074731,0.0090489,0.099435,0.96796,0.058838,0.33306,0.59301,0.87539,0.17102,0.11982,0.61379,no
0.20685,0.092287,0.6708,0.066573,0.013323,0.2077,0.89429,0.060341,0.30425,0.52596,0.89363,0.13698,0.14041,0.69398,no
0.46948,0.069674,0.6984,0.066463,0.013708,0.18479,0.95479,0.059021,0.33455,0.59381,0.87596,0.17106,0.12205,0.60946,no
0.48834,0.04414,0.69585,0.066561,0.010125,0.083005,0.9614,0.060473,0.29564,0.52896,0.89355,0.13057,0.13734,0.69767,no
0.39182,0.081315,0.67477,0.066569,0.012018,0.12086,0.96099,0.058926,0.32247,0.63393,0.87558,0.15885,0.12092,0.63408,no
0.47261,0.028293,0.68064,0.066561,0.0059358,0.10282,0.97524,0.060093,0.28888,0.50797,0.89332,0.12497,0.13125,0.70828,no
0.3963,0.093484,0.67877,0.066098,0.014497,0.12001,0.91216,0.058404,0.33224,0.60309,0.87532,0.17069,0.11975,0.60645,no
0.50783,0.060319,0.69275,0.066438,0.012781,0.12413,0.91175,0.060302,0.29868,0.52056,0.89359,0.13328,0.12699,0.69246,no
0.38568,0.066951,0.67409,0.066505,0.0059148,0.12552,0.96299,0.058627,0.3347,0.60279,0.87488,0.17254,0.12031,0.60459,no
0.40027,0.05282,0.68493,0.090319,0.005585,0.086635,0.93569,0.060444,0.30805,0.52194,0.89387,0.13936,0.14505,0.69291,no
0.29436,0.11715,0.67528,0.064984,0.033608,0.171,0.90621,0.0594,0.33607,0.59948,0.87625,0.17181,0.12296,0.61305,no
0.28928,0.097735,0.66594,0.066563,0.011055,0.14068,0.90254,0.060577,0.30355,0.51519,0.89348,0.13532,0.14955,0.70334,no
0.49256,0.041732,0.69886,0.066548,0.0082208,0.10375,0.97803,0.060078,0.32797,0.62089,0.87487,0.16311,0.12522,0.63822,no
0.42878,0.071457,0.67524,0.066056,0.013023,0.11307,0.94059,0.060314,0.30501,0.53591,0.894,0.13519,0.15343,0.70707,no
0.49504,0.06251,0.7013,0.067298,0.016699,0.1887,0.96105,0.059786,0.33824,0.59734,0.87673,0.17128,0.12749,0.61296,no
0.39421,0.086661,0.69028,0.066555,0.020024,0.15637,0.93545,0.060231,0.31142,0.5741,0.89441,0.13729,0.14884,0.71145,no
0.4917,0.085319,0.69554,0.066562,0.020035,0.14364,0.91625,0.060615,0.33474,0.58338,0.8782,0.16401,0.12996,0.62988,no
0.50558,0.081054,0.72821,0.066561,0.017636,0.18058,0.95089,0.058486,0.33377,0.55615,0.89544,0.15108,0.17207,0.72564,no
0.39915,0.075174,0.73779,0.06656,0.013268,0.13351,0.96625,0.060742,0.34009,0.57691,0.87941,0.16123,0.14432,0.6579,no
0.41257,0.078323,0.68923,0.066348,0.012634,0.13538,0.9389,0.052793,0.33413,0.46848,0.89387,0.1426,0.18607,0.76494,no
0.41959,0.092231,0.6806,0.066552,0.01586,0.14362,0.95367,0.055829,0.31943,0.48859,0.8872,0.13888,0.16249,0.69561,no
0.50394,0.066032,0.68779,0.066561,0.013218,0.11191,0.95872,0.035727,0.2965,0.49642,0.89761,0.10246,0.17556,0.81873,no
0.3878,0.087384,0.69214,0.066555,0.013933,0.10859,0.94153,0.016873,0.26772,0.17293,0.88767,0.068546,0.15651,0.85676,no
0.50557,0.06143,0.68905,0.066547,0.014138,0.14025,0.9555,0.0071561,0.32135,0,0.89203,0.067337,0.2156,0.93986,no
0.50509,0.085811,0.68628,0.066399,0.021025,0.21024,0.90876,0.051876,0.36709,0.66922,0.85923,0.16692,0.19729,0.78115,no
0.48668,0.0584,0.69418,0.066248,0.011659,0.12803,0.966,0.019193,1,0.24663,0.62812,1,0.12805,0,no
0.41314,0.0772,0.68618,0.066587,0.014538,0.13879,0.96824,0,0.96862,0.13884,1,0.17262,1.73E-18,0.18891,no
0.40269,0.08742,0.67281,0.066476,0.01263,0.10128,0.95672,0.013801,0.077428,0.67805,0.89203,0.0028647,0.21717,0.9364,no
0.49493,0.062142,0.71566,0.066558,0.013701,0.13873,0.95982,0.0032227,0.16175,0.51408,0.89197,0.0022722,0.24978,0.98179,no
0.40981,0.071028,0.68482,0.066062,0.013898,0.13536,0.94718,0.0019741,0.17234,0.55474,0.89203,0,0.27187,1,no
0.51386,0.072304,0.69261,0.06655,0.021749,0.18265,0.94208,0.003951,0.13973,0.59337,0.89162,0.00063062,0.25772,0.97372,no
0.4219,0.081346,0.68141,0.065648,0.018068,0.16347,0.95175,0.055594,0.049793,0.57427,0.89193,0.00072531,0.18417,0.91507,no
